# Strata Output: Acceleration Time Series
# Project:TST site
# Time (s),S-1-M-LOMAP\GIL067.AT2,
0,0.0010918225865797536
0.005,0.0011071500425497765
0.01,0.0011217133630410806
0.015,0.00113551615658405
0.02,0.0011485623607766305
0.025,0.0011608562133230407
0.03,0.0011724022278405783
0.035,0.0011832051730853055
0.04,0.0011932700542185818
0.045,0.0012026020948429303
0.05,0.0012112067187656343
0.055,0.0012190895307785988
0.06,0.001226256296133959
0.065,0.001232712918804593
0.07,0.0012384654190000662
0.075,0.0012435199107252918
0.08,0.0012478825803893642
0.085,0.0012515596675825363
0.09,0.0012545574491330566
0.095,0.0012568822274453936
0.1,0.0012585403239216623
0.105,0.001259538078004892
0.11,0.0012598818520818936
0.115,0.0012595780421722723
0.12,0.0012586330940286738
0.125,0.0012570535240072976
0.13,0.0012548459438435388
0.135,0.0012520170883009213
0.14,0.0012485738445529321
0.145,0.0012445232821076246
0.15,0.0012398726820920108
0.155,0.0012346295647701622
0.16,0.0012288017142695635
0.165,0.0012223971996292403
0.17,0.0012154243914479917
0.17500000000000002,0.0012078919735996878
0.18,0.0011998089496820972
0.185,0.00119118464406999
0.19,0.0011820286976433685
0.195,0.0011723510584483196
0.2,0.0011621619677124435
0.20500000000000002,0.0011514719417758722
0.21,0.0011402917506018759
0.215,0.0011286323936004852
0.22,0.0011165050735309511
0.225,0.0011039211692460038
0.23,0.0010908922080081489
0.23500000000000001,0.0010774298380470692
0.24,0.0010635458019454505
0.245,0.0010492519113429852
0.25,0.0010345600233378812
0.255,0.0010194820188506322
0.26,0.001004029783095858
0.265,0.0009882151881937466
0.27,0.0009720500778420446
0.275,0.0009555462538731157
0.28,0.0009387154644356553
0.28500000000000003,0.0009215693934778662
0.29,0.0009041196511666198
0.295,0.0008863777648609157
0.3,0.0008683551702646369
0.305,0.0008500632024167317
0.31,0.0008315130862270245
0.315,0.000812715926333499
0.32,0.0007936826961318662
0.325,0.0007744242259066651
0.33,0.0007549511900670935
0.335,0.0007352740935559481
0.34,0.0007154032575524786
0.34500000000000003,0.0006953488046279957
0.35000000000000003,0.0006751206435355294
0.355,0.0006547284538232244
0.36,0.000634181670458009
0.365,0.000613489468633856
0.37,0.0005926607489199309
0.375,0.0005717041228812491
0.38,0.0005506278992829174
0.385,0.0005294400709646408
0.39,0.0005081483024537864
0.395,0.0004867599183663243
0.4,0.0004652818926314334
0.405,0.0004437208385626061
0.41000000000000003,0.0004220829997882735
0.41500000000000004,0.0004003742420449622
0.42,0.00037860004582702234
0.425,0.0003567654998754449
0.43,0.00033487529547616436
0.435,0.0003129337215232287
0.44,0.00029094466028376816
0.445,0.0002689115837836162
0.45,0.0002468375507094205
0.455,0.00022472520370288212
0.46,0.0002025767669004385
0.465,0.00018039404355347206
0.47000000000000003,0.00015817841354654274
0.47500000000000003,0.00013593083061880766
0.48,0.0001136518190852219
0.485,9.134146984997684e-05
0.49,6.899943550409325e-05
0.495,4.662492430551466e-05
0.5,2.4216692845609823e-05
0.505,1.7730372183294906e-06
0.51,-2.0708217480130258e-05
0.515,-4.3229729479725034e-05
0.52,-6.57946546402228e-05
0.525,-8.84066628638884e-05
0.53,-0.00011106995674478458
0.535,-0.00013378929257472483
0.54,-0.00015657000382472816
0.545,-0.00017941802722351777
0.55,-0.0002023399315591046
0.555,-0.00022534294934096363
0.56,-0.00024843501147088867
0.5650000000000001,-0.00027162478508570043
0.5700000000000001,-0.00029492171474996084
0.5750000000000001,-0.00031833606719042673
0.58,-0.00034187897977734215
0.585,-0.0003655625129658745
0.59,-0.00038939970691700883
0.595,-0.0004134046425152407
0.6,-0.00043759250699366547
0.605,-0.0004619796643615106
0.61,-0.00048658373080415456
0.615,-0.0005114236551908949
0.62,-0.0005365198047771711
0.625,-0.0005618940561244983
0.63,-0.0005875698911795523
0.635,-0.0006135724983478044
0.64,-0.0006399288782615671
0.645,-0.0006666679537722398
0.65,-0.0006938206834779531
0.655,-0.0007214201778235155
0.66,-0.0007495018164661994
0.665,-0.0007781033651693792
0.67,-0.00080726508995319
0.675,-0.0008370298655744862
0.68,-0.0008674432746062615
0.685,-0.0008985536924188507
0.6900000000000001,-0.0009304123522075311
0.6950000000000001,-0.0009630733828479265
0.7000000000000001,-0.0009965938107769307
0.705,-0.0010310335152952752
0.71,-0.0010664551246850568
0.715,-0.001102923838380548
0.72,-0.001140507158211464
0.725,-0.001179274509603874
0.73,-0.0012192967317936352
0.735,-0.0012606454149020653
0.74,-0.0013033920615675805
0.745,-0.0013476070522679033
0.75,-0.001393358397160694
0.755,-0.0014407102639422548
0.76,-0.0014897212815907735
0.765,-0.0015404426344984591
0.77,-0.0015929159806333975
0.775,-0.0016471712506473024
0.78,-0.0017032244110335864
0.785,-0.0017610753012227826
0.79,-0.0018207056783905164
0.795,-0.001882077620265575
0.8,-0.0019451324404322497
0.805,-0.002009790258074534
0.81,-0.0020759503320357535
0.8150000000000001,-0.0021434922175868833
0.8200000000000001,-0.002212277737211298
0.8250000000000001,-0.002282153681541639
0.8300000000000001,-0.002352955083566132
0.835,-0.002424508849440473
0.84,-0.0024966374923056102
0.845,-0.002569162707493617
0.85,-0.0026419085496975614
0.855,-0.002714704021576821
0.86,-0.0027873849514951634
0.865,-0.0028597951160700746
0.87,-0.0029317866408810215
0.875,-0.003003219780976546
0.88,-0.003073962234712923
0.885,-0.003143888175541127
0.89,-0.0032128771950207793
0.895,-0.0032808133376005704
0.9,-0.0033475843767892454
0.905,-0.003413081438079716
0.91,-0.003477199022108143
0.915,-0.003539835427984449
0.92,-0.003600893527084822
0.925,-0.0036602817965701957
0.93,-0.0037179154929727278
0.935,-0.0037737178314339024
0.9400000000000001,-0.0038276210360839104
0.9450000000000001,-0.003879567140637119
0.9500000000000001,-0.003929508443270879
0.9550000000000001,-0.003977407553061719
0.96,-0.0040232370029868745
0.965,-0.004066978443050864
0.97,-0.0041086214630712305
0.975,-0.0041481621252431305
0.98,-0.004185601309624075
0.985,-0.004220942989618904
0.99,-0.004254192558460169
0.995,-0.00428535532120943
1,-0.004314435250187954
1.0050000000000001,-0.004341434075943366
1.01,-0.004366350752686257
1.0150000000000001,-0.004389181299367504
1.02,-0.004409918978925209
1.025,-0.004428554743128374
1.03,-0.004445077843503604
1.035,-0.004459476494181635
1.04,-0.004471738472948373
1.045,-0.0044818515631411485
1.05,-0.004489803769680166
1.055,-0.004495583283512449
1.06,-0.004499178214269818
1.065,-0.004500576154287358
1.07,-0.004499763671733147
1.075,-0.004496725851146724
1.08,-0.004491446002927521
1.085,-0.00448390564859953
1.09,-0.004474084857995201
1.095,-0.004461962972207785
1.1,-0.004447519698298175
1.105,-0.004430736515185151
1.11,-0.004411598291580236
1.115,-0.004390094991799262
1.12,-0.00436622333734451
1.125,-0.004339988302336403
1.1300000000000001,-0.004311404347501573
1.135,-0.0042804963363712424
1.1400000000000001,-0.004247300122697137
1.145,-0.004211862843114609
1.1500000000000001,-0.004174242987212483
1.155,-0.0041345103429375
1.16,-0.0040927459249043814
1.165,-0.004049041985001203
1.17,-0.004003502179123587
1.175,-0.00395624192351107
1.18,-0.003907388923424332
1.185,-0.00385708380169002
1.19,-0.0038054807016321386
1.195,-0.003752747694752417
1.2,-0.003699066793974487
1.205,-0.0036446333625558642
1.21,-0.003589654719329716
1.215,-0.0035343477735401965
1.22,-0.0034789355766625747
1.225,-0.0034236427527708038
1.23,-0.0033686898607330454
1.235,-0.0033142868467326892
1.24,-0.0032606258577987696
1.245,-0.0032078737963244504
1.25,-0.003156165088628034
1.2550000000000001,-0.0031055952018415145
1.26,-0.003056215457552867
1.2650000000000001,-0.003008029646544641
1.27,-0.0029609928433854747
1.2750000000000001,-0.0029150126595519446
1.28,-0.002869952976555646
1.285,-0.0028256399913532113
1.29,-0.0027818702133591226
1.295,-0.0027384199015147194
1.3,-0.002695055339741386
1.305,-0.0026515433280989466
1.31,-0.002607661312359087
1.315,-0.0025632066739937395
1.32,-0.002518004836377241
1.325,-0.002471915988755463
1.33,-0.002424840365432718
1.335,-0.0023767221261185075
1.34,-0.0023275519538373222
1.345,-0.002277368516944522
1.35,-0.002226258937450036
1.355,-0.002174358381030682
1.36,-0.0021218488494894588
1.365,-0.0020689572270854643
1.37,-0.0020159526158203436
1.375,-0.0019631429917586793
1.3800000000000001,-0.0019108712184902914
1.385,-0.0018595104554155624
1.3900000000000001,-0.001809458989825164
1.395,-0.0017611345008641459
1.4000000000000001,-0.001714967736185707
1.405,-0.0016713955600724142
1.41,-0.0016308533281205319
1.415,-0.0015937665675649615
1.42,-0.0015605419959528702
1.425,-0.0015315579881485652
1.43,-0.0015071546906237348
1.435,-0.0014876240680475894
1.44,-0.0014732002359688055
1.445,-0.00146405047259397
1.45,-0.0014602673033681385
1.455,-0.0014618620101676727
1.46,-0.0014687598353698593
1.465,-0.00148079704158213
1.47,-0.0014977198704764902
1.475,-0.001519185343430064
1.48,-0.001544763784125742
1.485,-0.001573942929629305
1.49,-0.0016061335262466262
1.495,-0.001640676358277527
1.5,-0.00167685070092377
1.5050000000000001,-0.001713884193870407
1.51,-0.001750964082833547
1.5150000000000001,-0.001787249675804213
1.52,-0.001821885732252607
1.5250000000000001,-0.00185401638431851
1.53,-0.0018827991182531084
1.5350000000000001,-0.0019074183504829375
1.54,-0.001927098223127512
1.545,-0.0019411144011922004
1.55,-0.0019488048391873504
1.555,-0.0019495796484047885
1.56,-0.0019429302895382452
1.565,-0.0019284383062928953
1.57,-0.0019057836965877854
1.575,-0.001874752809413188
1.58,-0.001835245401890548
1.585,-0.0017872802511375403
1.59,-0.001730998548346399
1.595,-0.0016666642544243377
1.6,-0.0015946606909483867
1.605,-0.001515482872439959
1.61,-0.001429725424917495
1.615,-0.0013380663305826244
1.62,-0.001241247129703138
1.625,-0.001140050541540408
1.6300000000000001,-0.0010352766928692688
1.635,-0.000927719240979511
1.6400000000000001,-0.0008181426447536176
1.645,-0.0007072616875482429
1.6500000000000001,-0.0005957241174148022
1.655,-0.0004840969791920205
1.6600000000000001,-0.000372856906628074
1.665,-0.0002623843557435967
1.67,-0.00015296152132577746
1.675,-4.4773504917109215e-05
1.68,6.208779902306741e-05
1.685,0.00016761766782013822
1.69,0.0002718909194328362
1.695,0.00037505318912387344
1.7,0.000477311548978916
1.705,0.0005789248261260741
1.71,0.0006801938885393615
1.715,0.0007814520740409373
1.72,0.0008830558449358674
1.725,0.0009853756730970685
1.73,0.0010887871218180762
1.735,0.001193662115887708
1.74,0.0013003604943199628
1.745,0.0014092221140790228
1.75,0.0015205599844802112
1.7550000000000001,0.0016346551039572088
1.76,0.0017517537754748623
1.7650000000000001,0.0018720681322413292
1.77,0.0019957803742010347
1.7750000000000001,0.0021230507991813656
1.78,0.002254029156027108
1.7850000000000001,0.0023888682367419712
1.79,0.0025277380736942823
1.795,0.002670838734969142
1.8,0.0028184096146093842
1.805,0.0029707333496482593
1.81,0.0031281330572277186
1.815,0.0032909624031119563
1.82,0.003459588963110207
1.825,0.0036343722640922063
1.83,0.003815638631810818
1.835,0.004003655399783813
1.84,0.004198607077754308
1.845,0.00440057574743969
1.85,0.004609527331981675
1.855,0.004825304615422802
1.86,0.005047627132444856
1.865,0.005276097447818692
1.87,0.005510212983241929
1.875,0.0057493824346896445
1.8800000000000001,0.00599294589449605
1.885,0.006240197944069891
1.8900000000000001,0.006490413103616406
1.895,0.006742873030229695
1.9000000000000001,0.006996894710064927
1.905,0.007251858612333344
1.9100000000000001,0.0075072354236800885
1.915,0.007762609645217659
1.92,0.008017698096493898
1.925,0.00827236129946488
1.93,0.008526605851001177
1.935,0.00878057624161895
1.94,0.009034535117931444
1.945,0.009288831671915432
1.95,0.009543858616300617
1.955,0.009799999018162446
1.96,0.010057565067225768
1.965,0.010316731617530883
1.97,0.010577468032387011
1.975,0.010839472447784205
1.98,0.011102112992986808
1.985,0.011364380683924941
1.99,0.011624858525757044
1.995,0.011881710715536873
2,0.01213269465502475
2.005,0.012375196785908687
2.0100000000000002,0.012606291184962625
2.015,0.012822817666977097
2.02,0.013021474181376788
2.025,0.01319891690080647
2.0300000000000002,0.013351860846607258
2.035,0.01347717427632771
2.04,0.013571961278863322
2.045,0.013633628819821194
2.05,0.013659936490282937
2.055,0.013649029071584934
2.06,0.013599453464154037
2.065,0.013510162418723904
2.07,0.013380507892646963
2.075,0.01321022688896517
2.08,0.012999422518434407
2.085,0.012748542911636377
2.09,0.012458360560944308
2.095,0.012129954643964528
2.1,0.01176469874765951
2.105,0.011364256032200471
2.11,0.010930583141882569
2.115,0.010465943064633913
2.12,0.009972925735055333
2.125,0.00945447362718188
2.13,0.008913908110076254
2.1350000000000002,0.008354951185547044
2.14,0.007781736626121591
2.145,0.0071988046677223146
2.15,0.0066110753819226195
2.1550000000000002,0.00602379762985821
2.16,0.005442472911597848
2.165,0.004872756160050538
2.17,0.004320338178910546
2.1750000000000003,0.003790816557820327
2.18,0.003289563151353597
2.185,0.0028215963721475567
2.19,0.0023914656208953566
2.195,0.002003153366186436
2.2,0.0016599980646626999
2.205,0.0013646387153575645
2.21,0.0011189797765521377
2.215,0.0009241737257241878
2.22,0.0007806178369457168
2.225,0.0006879617483739453
2.23,0.0006451229367708465
2.235,0.0006503080838700921
2.24,0.0007010392813035697
2.245,0.000794184883160628
2.25,0.0009259954460438225
2.255,0.0010921455342589074
2.2600000000000002,0.0012877822178879853
2.265,0.0015075809119886531
2.27,0.001745808884613171
2.275,0.001996396391867722
2.2800000000000002,0.0022530150495872797
2.285,0.0025091627533218035
2.29,0.0027582541984942145
2.295,0.002993715788516702
2.3000000000000003,0.003209083403001058
2.305,0.003398101105653945
2.31,0.003554818419238961
2.315,0.003673683350549287
2.32,0.0037496280219774915
2.325,0.0037781436899829096
2.33,0.0037553422267762575
2.335,0.0036780018860928174
2.34,0.003543596363830565
2.345,0.0033503076951978865
2.35,0.003097025194469443
2.355,0.002783334154471768
2.36,0.0024094990625929975
2.365,0.0019764463771013785
2.37,0.0014857512704609347
2.375,0.000939631184202209
2.38,0.0003409467506126173
2.3850000000000002,-0.00030679200167550865
2.39,-0.0009994187369823805
2.395,-0.0017321096284939241
2.4,-0.0024993951459403945
2.4050000000000002,-0.0032951916334009487
2.41,-0.004112857868704556
2.415,-0.004945279236707262
2.42,-0.005784979088229124
2.4250000000000003,-0.006624253793998429
2.43,-0.007455325407648762
2.435,-0.008270504083064015
2.44,-0.009062351651386432
2.445,-0.009823838082443198
2.45,-0.010548483805176902
2.455,-0.011230482783041763
2.46,-0.011864803486528602
2.465,-0.012447267093588427
2.47,-0.012974604022423569
2.475,-0.013444490992057117
2.48,-0.01385557109250864
2.485,-0.014207458886174088
2.49,-0.014500731588607594
2.495,-0.01473690625073481
2.5,-0.014918401984879742
2.505,-0.015048485974135594
2.5100000000000002,-0.015131202442347452
2.515,-0.015171284883420446
2.52,-0.015174053387932734
2.525,-0.01514530046601274
2.5300000000000002,-0.015091169943413113
2.535,-0.015018034011518546
2.54,-0.014932373243666013
2.545,-0.01484066345626927
2.5500000000000003,-0.014749271950714496
2.555,-0.01466436423503806
2.56,-0.014591821071086138
2.565,-0.014537164803159202
2.57,-0.014505493463412898
2.575,-0.01450142109154226
2.58,-0.014529022978236873
2.585,-0.014591785065521714
2.59,-0.014692557453490438
2.595,-0.014833512830532485
2.6,-0.01501611161489966
2.605,-0.015241076582184737
2.61,-0.015508380606873137
2.615,-0.01581725165990293
2.62,-0.016166199153488044
2.625,-0.016553064933697178
2.63,-0.016975100635016033
2.6350000000000002,-0.01742907084002544
2.64,-0.01791137880698774
2.645,-0.018418208827820783
2.65,-0.01894567697789448
2.6550000000000002,-0.019489980478977965
2.66,-0.02004753535644124
2.665,-0.020615092618002182
2.67,-0.021189824751920574
2.6750000000000003,-0.021769376753262057
2.68,-0.022351878866880788
2.685,-0.02293592146446056
2.69,-0.02352049561387029
2.695,-0.0241049056311998
2.7,-0.02468866195334456
2.705,-0.025271363830510634
2.71,-0.025852581513663375
2.715,-0.02643174682305681
2.72,-0.027008059376348433
2.725,-0.02758041357766396
2.73,-0.028147349029318747
2.735,-0.028707024631589625
2.74,-0.029257214536118452
2.745,-0.029795322489836736
2.75,-0.030318410050036132
2.755,-0.030823233719178826
2.7600000000000002,-0.031306286262755535
2.765,-0.031763838326224814
2.77,-0.032191977891738006
2.775,-0.03258664695377018
2.7800000000000002,-0.03294367677666901
2.785,-0.03325882486819236
2.79,-0.0335278179770202
2.795,-0.033746405682642415
2.8000000000000003,-0.03391042833907306
2.805,-0.03401590132865616
2.81,-0.03405911507220079
2.815,-0.03403674748080194
2.82,-0.033945983027804646
2.825,-0.03378463080238886
2.83,-0.033551233056196575
2.835,-0.033245155954455916
2.84,-0.03286665540431155
2.845,-0.032416912751219745
2.85,-0.03189803754974132
2.855,-0.03131303725308916
2.86,-0.030665756252366907
2.865,-0.029960788964171946
2.87,-0.029203373368532373
2.875,-0.028399272347572536
2.88,-0.02755465027640895
2.8850000000000002,-0.026675951607818084
2.89,-0.02576978683565807
2.895,-0.024842829475000952
2.9,-0.023901725847501422
2.9050000000000002,-0.022953017767068207
2.91,-0.02200307686753765
2.915,-0.021058048391676208
2.92,-0.020123801773502793
2.9250000000000003,-0.019205885236573947
2.93,-0.018309481818257332
2.935,-0.01743936464456152
2.94,-0.016599849885091368
2.945,-0.015794746604958727
2.95,-0.01502730369138781
2.955,-0.014300155119786762
2.96,-0.013615265925799919
2.965,-0.012973882196939736
2.97,-0.012376489000901787
2.975,-0.011822780274164382
2.98,-0.011311644234883874
2.985,-0.010841166897778302
2.99,-0.01040865489699095
2.995,-0.010010677277173408
3,-0.00964312442866106
3.005,-0.009301281131216081
3.0100000000000002,-0.00897990988087479
3.015,-0.008673340368482245
3.02,-0.008375561131148967
3.025,-0.008080309913654079
3.0300000000000002,-0.007781160021561969
3.035,-0.00747160078352587
3.04,-0.00714511105418989
3.045,-0.0067952254103499895
3.0500000000000003,-0.00641559329429158
3.055,-0.0060000318438258255
3.06,-0.0055425735335773735
3.065,-0.005037510040274461
3.0700000000000003,-0.00447943391590765
3.075,-0.003863279667328124
3.08,-0.0031843656642399016
3.085,-0.002438437930482488
3.09,-0.0016217163734726374
3.095,-0.000730943480692212
3.1,0.0002365649215946595
3.105,0.001282867518728691
3.11,0.002409344748242878
3.115,0.0036166462636425664
3.12,0.004904639591625905
3.125,0.006272361289330643
3.13,0.007717972459758854
3.1350000000000002,0.009238721142345628
3.14,0.010830914661010327
3.145,0.01248990526845667
3.15,0.014210092232546379
3.1550000000000002,0.015984942864918146
3.16,0.01780703403429566
3.165,0.01966811467151764
3.17,0.021559188903234845
3.1750000000000003,0.023470618913626177
3.18,0.025392246468184082
3.185,0.02731353214981233
3.19,0.02922371157275097
3.1950000000000003,0.03111196794003378
3.2,0.032967620106279266
3.205,0.03478032467497022
3.21,0.03654028955707371
3.215,0.03823849489427268
3.22,0.03986691544032437
3.225,0.04141873661062272
3.23,0.04288855472408385
3.235,0.044272550773680155
3.24,0.04556862666484206
3.245,0.04677649349719648
3.25,0.04789770328541315
3.255,0.048935618538175844
3.2600000000000002,0.04989531819449661
3.265,0.05078344322594905
3.27,0.051607990254204275
3.275,0.052378066188401816
3.2800000000000002,0.053103620508034174
3.285,0.05379517383596462
3.29,0.054463561485172646
3.295,0.05511970861799632
3.3000000000000003,0.05577444973544772
3.305,0.05643839991767531
3.31,0.05712187928860371
3.315,0.05783488641123706
3.3200000000000003,0.05858711153905549
3.325,0.05938797748771949
3.33,0.060246694697239145
3.335,0.06117231781840975
3.34,0.062173793510010164
3.345,0.06325999242066062
3.35,0.0644397217530893
3.355,0.06572171760941534
3.36,0.06711461795321315
3.365,0.06862691730380228
3.37,0.07026690339233495
3.375,0.07204257447314422
3.38,0.07396153449224936
3.3850000000000002,0.07603086255984948
3.39,0.0782569536739826
3.395,0.08064532962620949
3.4,0.08320042237825183
3.4050000000000002,0.08592533650997179
3.41,0.08882160195105171
3.415,0.0918889323511364
3.42,0.0951250073577002
