# Strata Output: Acceleration Time Series
# Project:TST site
# Time (s),S-1-M-NORTHR\LV3090.AT2,
0,2.902246349964346e-05
0.02,3.106209649473618e-05
0.04,3.327803786816495e-05
0.06,3.578171913191014e-05
0.08,3.852201881390056e-05
0.1,4.162843148656066e-05
0.12,4.505540012746861e-05
0.14,4.895685912933442e-05
0.16,5.32978841279988e-05
0.18,5.826657170797201e-05
0.2,6.384724888256086e-05
0.22,7.027755465530568e-05
0.24,7.757607518125989e-05
0.26,8.605535918574267e-05
0.28,9.579521825137899e-05
0.3,0.00010722699529134799
0.32,0.00012054215693420672
0.34,0.0001363710699618948
0.36,0.00015511599852168663
0.38,0.00017776281384840285
0.4,0.0002051319571602863
0.42,0.00023889430726380947
0.44,0.0002807568120026602
0.46,0.0003338356730609637
0.48,0.00040188729346987765
0.5,0.0004914356282383294
0.52,0.0006115663908836137
0.54,0.0007782417243235255
0.56,0.0010182447495114448
0.58,0.0013885559316475541
0.6,0.0020187688954224244
0.62,0.003070243644438819
0.64,0.0043536475969711405
0.66,0.005287171727723795
0.68,0.0055058299905087005
0.7000000000000001,0.0052571461585677595
0.72,0.00506587298902917
0.74,0.004881535651355759
0.76,0.004203375957572903
0.78,0.0031164588445016057
0.8,0.0022380262253194182
0.8200000000000001,0.0020035395092709756
0.84,0.0023297577173322336
0.86,0.0028146453563107935
0.88,0.0033460837071351227
0.9,0.003959730394148196
0.92,0.0044927106709629
0.9400000000000001,0.004978280520887122
0.96,0.005717908772032912
0.98,0.0065544032258404656
1,0.006975594767517118
1.02,0.006599386186572331
1.04,0.0053465798700046375
1.06,0.0036480448876372667
1.08,0.0022097507784612372
1.1,0.001420180186231504
1.12,0.0008121815390713737
1.1400000000000001,-0.00017520525897314103
1.16,-0.0013257666278938375
1.18,-0.0021422747396735095
1.2,-0.002566721569229844
1.22,-0.0027194459598577376
1.24,-0.0026434415569039486
1.26,-0.0024317616194276105
1.28,-0.002222469252199468
1.3,-0.0023915830998655434
1.32,-0.0029803424804545815
1.34,-0.003595863129055996
1.36,-0.0040319818097048835
1.3800000000000001,-0.0042953461818269175
1.4000000000000001,-0.004265206806047483
1.42,-0.00338902550131518
1.44,-0.0014676952125994343
1.46,0.0006754581761189262
1.48,0.0017945528851487317
1.5,0.0012203536959329985
1.52,-0.0004464500640575361
1.54,-0.0018711219583057521
1.56,-0.002504371030940608
1.58,-0.002890102232206052
1.6,-0.0033737622291375633
1.62,-0.004034753074593498
1.6400000000000001,-0.005338566669180404
1.6600000000000001,-0.007268679205487266
1.68,-0.00871242290557631
1.7,-0.0086697296600499
1.72,-0.007548253285773749
1.74,-0.006762677668679462
1.76,-0.007347144294339047
1.78,-0.009065695543321558
1.8,-0.010850512409799767
1.82,-0.011795626173307676
1.84,-0.011615682289272237
1.86,-0.010473146024965213
1.8800000000000001,-0.008343842339724242
1.9000000000000001,-0.005170667013678203
1.92,-0.0016537704490872528
1.94,0.000744087585958743
1.96,0.0006583911904475336
1.98,-0.0015777804756610264
2,-0.003542978557376262
2.02,-0.00316170064526402
2.04,-0.0007106233208703621
2.06,0.00225909136682055
2.08,0.004555825269481944
2.1,0.005516488248356912
2.12,0.0050269952298948855
2.14,0.003458336755623129
2.16,0.001547071399350817
2.18,0.0003642956772387634
2.2,0.00024504652628105087
2.22,0.0005215859980899659
2.24,0.000543988096719328
2.2600000000000002,-7.322456069218416e-05
2.2800000000000002,-0.0014545463490391209
2.3000000000000003,-0.0029927911031048422
2.32,-0.0035953131995593033
2.34,-0.0027702962680124076
2.36,-0.000888362118917802
2.38,0.001517325533560843
2.4,0.0037281247005461525
2.42,0.004686145667780367
2.44,0.00394644845769316
2.46,0.0020758491566499984
2.48,0.00024981655242468025
2.5,-0.0005587005036650152
2.52,-0.0005756436126685546
2.54,-0.0007259411280536495
2.56,-0.0014201910504817487
2.58,-0.002561622743011535
2.6,-0.0036422490404557153
2.62,-0.0038327538380585847
2.64,-0.0026591277965639978
2.66,-0.000710703895842481
2.68,0.0006056658380602774
2.7,0.000876238564766113
2.72,0.001237653894224613
2.74,0.0025428344891518283
2.7600000000000002,0.004648596719636088
2.7800000000000002,0.006913600023751747
2.8000000000000003,0.008280996708498795
2.82,0.008199686288180555
2.84,0.0072488510082590685
2.86,0.005981797189807434
2.88,0.004326451869907094
2.9,0.002401777644328973
2.92,0.0010400744857540108
2.94,0.0010321577263327202
2.96,0.0019593447316642596
2.98,0.0028388640533406513
3,0.003366303785936925
3.02,0.003895729673712458
3.04,0.004701505178908904
3.06,0.005612855952035584
3.08,0.00617307685696637
3.1,0.006131095694242349
3.12,0.006198644810249219
3.14,0.007157907151509955
3.16,0.00822100426522269
3.18,0.008085684023817895
3.2,0.006429849271635792
3.22,0.0035517214338164297
3.24,0.0002688044547843031
3.2600000000000002,-0.002534583529865215
3.2800000000000002,-0.004848399113049821
3.3000000000000003,-0.006956769578666905
3.3200000000000003,-0.008545298860731517
3.34,-0.009445087102049887
3.36,-0.010139288716545278
3.38,-0.01073402212639725
3.4,-0.011101946545960494
3.42,-0.011488812519737018
3.44,-0.011839547852871403
3.46,-0.011924307121171767
3.48,-0.011542682460921763
3.5,-0.010385658644704443
3.52,-0.008816325151121315
3.54,-0.007526736673038737
3.56,-0.006314706069084312
3.58,-0.004542582818506294
3.6,-0.0023444333213976905
3.62,-0.000525507292417516
3.64,0.0001889630461023247
3.66,-0.0005965219530876928
3.68,-0.002722493288021179
3.7,-0.005181691774495562
3.72,-0.006420307168630581
3.74,-0.005846350738608377
3.7600000000000002,-0.004635943770984179
3.7800000000000002,-0.003891927954337128
3.8000000000000003,-0.003164153384753649
3.8200000000000003,-0.0017862311453445596
3.84,-0.00019524573814114397
3.86,0.0007980832267993073
3.88,0.0010825398914196174
3.9,0.0010451293022415101
3.92,0.0008009549333338968
3.94,-7.692840919887123e-05
3.96,-0.0021220160070706574
3.98,-0.005009331407076724
4,-0.007689405673784943
4.0200000000000005,-0.009371460881175676
4.04,-0.00977944831700126
4.0600000000000005,-0.009273197071630527
4.08,-0.008700433533305678
4.1,-0.00841160373354636
4.12,-0.008111892553548694
4.14,-0.00757329800298236
4.16,-0.006510032912318472
4.18,-0.004847629354767947
4.2,-0.0034783267153986304
4.22,-0.003300091429909487
4.24,-0.004018010607035836
4.26,-0.004234675798760434
4.28,-0.0028391827363554102
4.3,-0.0003856543480395127
4.32,0.0017311615167423119
4.34,0.0026482674833456185
4.36,0.002712412568964558
4.38,0.003351347119104176
4.4,0.005431607288762824
4.42,0.008150779574262067
4.44,0.010485000532175392
4.46,0.012519651771347383
4.48,0.01442504994043452
4.5,0.015697270186503205
4.5200000000000005,0.016177629356616523
4.54,0.01636133002366722
4.5600000000000005,0.016551352340070324
4.58,0.016668361457957536
4.6000000000000005,0.01662475662820116
4.62,0.01628339303416703
4.64,0.015614787640816962
4.66,0.01459635996136312
4.68,0.012853994287852574
4.7,0.010999407066816853
4.72,0.010668899758952988
4.74,0.012220576780293943
4.76,0.014284827139649329
4.78,0.015751518138459274
4.8,0.01705221065131068
4.82,0.01892853777102324
4.84,0.021406464632493686
4.86,0.024288927558668832
4.88,0.027485584234730083
4.9,0.030597373921060628
4.92,0.032659754151754754
4.94,0.03316023688052335
4.96,0.0326739266256617
4.98,0.03153374427059876
5,0.02955744435245216
5.0200000000000005,0.026840383024282582
5.04,0.023237651410189693
5.0600000000000005,0.018704147503287784
5.08,0.013562834015616757
5.1000000000000005,0.008019112684774008
5.12,0.0019293941355019118
5.14,-0.005401086561565208
5.16,-0.014054780869051034
5.18,-0.02298760389258538
5.2,-0.03166471986844013
5.22,-0.040659218582096875
5.24,-0.050188755607861776
5.26,-0.059175756803016274
5.28,-0.06591284234199887
5.3,-0.06870716299952342
5.32,-0.06654795611278096
5.34,-0.060029470090735323
5.36,-0.05122791782310906
5.38,-0.04205291043590408
5.4,-0.03260993891401027
5.42,-0.021899521842469696
5.44,-0.00949230287186085
5.46,0.003969810454047833
5.48,0.017414893627487858
5.5,0.029728720230022154
5.5200000000000005,0.03888426645075255
5.54,0.04238858360754819
5.5600000000000005,0.03991773451425379
5.58,0.03426994014427332
5.6000000000000005,0.029270443082620567
5.62,0.026753031454062985
5.64,0.025243708111584117
5.66,0.021863919849710808
5.68,0.01542990197767728
5.7,0.007496572152982464
5.72,0.0009687897924508127
5.74,-0.002358238825040866
5.76,-0.003084798819886877
5.78,-0.002900467008967184
5.8,-0.0023962126705350637
5.82,-0.001360880849984462
5.84,-0.00028744120605222643
5.86,-8.886441364639117e-05
5.88,-0.0012896951201986054
5.9,-0.003706708520300425
5.92,-0.007376169263960927
5.94,-0.012909147577452743
5.96,-0.01997099556092826
5.98,-0.026918514115320653
6,-0.03208919649208461
6.0200000000000005,-0.03497960089899058
6.04,-0.036211107321108806
6.0600000000000005,-0.03582737985834318
6.08,-0.033229189164945674
6.1000000000000005,-0.029175774363752856
6.12,-0.025890106312076697
6.140000000000001,-0.0250620078118353
6.16,-0.026087038561098255
6.18,-0.026710003497949147
6.2,-0.02543009990780069
6.22,-0.022599271372598703
6.24,-0.019319471240353502
6.26,-0.015920915015123605
6.28,-0.011819275191679454
6.3,-0.006987846632707208
6.32,-0.0025222448973224202
6.34,0.0010619691248855197
6.36,0.004554404702326143
6.38,0.008653464323762078
6.4,0.013032690603910282
6.42,0.017242657581545803
6.44,0.021999078779901593
6.46,0.027591601577358855
6.48,0.032219523722837325
6.5,0.0344436440889245
6.5200000000000005,0.03523502728470473
6.54,0.03589760285861363
6.5600000000000005,0.035644815807120825
6.58,0.03205945709437177
6.6000000000000005,0.02349195071852849
6.62,0.010993460879752776
6.640000000000001,-0.0020796437174903865
6.66,-0.012881631973441823
6.68,-0.021495717871380358
6.7,-0.029094913899139766
6.72,-0.03411285485310978
6.74,-0.0334301140175903
6.76,-0.026766010225099723
6.78,-0.017772959980939668
6.8,-0.011091828590056313
6.82,-0.008900466835213908
6.84,-0.0094973782149704
6.86,-0.00828338861932231
6.88,-0.0025860170662113987
6.9,0.005502756871036643
6.92,0.011834904919959102
6.94,0.013621222709136679
6.96,0.010564863650222954
6.98,0.004816320967147565
7,0.0014125042118511698
7.0200000000000005,0.005083564493984722
7.04,0.014066012876069681
7.0600000000000005,0.02194787269877722
7.08,0.024650325888469878
7.1000000000000005,0.02179234187579305
7.12,0.01568589003344622
7.140000000000001,0.010528918799693001
7.16,0.010118062661230911
7.18,0.014253529587861646
7.2,0.018216586890919265
7.22,0.018145175587093748
7.24,0.014226501984264537
7.26,0.008401482337086017
7.28,0.0022311311862518446
7.3,-0.003751691319226336
7.32,-0.01006768467731113
7.34,-0.016938970601691274
7.36,-0.023907296227460437
7.38,-0.03022772368140765
7.4,-0.03359884449105663
7.42,-0.03095433814859896
7.44,-0.022200462692778075
7.46,-0.011787297632498256
7.48,-0.004440043841415565
7.5,-0.001395172522430369
7.5200000000000005,-0.0012877770086337037
7.54,-0.0019100118039427304
7.5600000000000005,-0.0013869747767540899
7.58,0.001657529883137744
7.6000000000000005,0.00770689962579526
7.62,0.015752332314228856
7.640000000000001,0.024273093091203433
7.66,0.03287319430929451
7.68,0.041666964615905494
7.7,0.05105894004333873
7.72,0.06259502773491701
7.74,0.07690869437595152
7.76,0.09121764005753141
7.78,0.10055280552255426
7.8,0.10141783918353013
7.82,0.09324368278276185
7.84,0.07722525815754495
7.86,0.05666889156530699
7.88,0.03622451870284027
7.9,0.018192077155365978
7.92,0.002398047542640619
7.94,-0.012054468994371025
7.96,-0.02672787478020787
7.98,-0.04309219104944321
8,-0.06173457965672085
8.02,-0.08114932056392697
8.040000000000001,-0.09634165285554905
8.06,-0.10201124601253252
8.08,-0.09691095128018369
8.1,-0.08307652480714739
8.120000000000001,-0.06266563396867952
8.14,-0.03704796720700331
8.16,-0.00843289261948407
8.18,0.019928216685484407
8.2,0.04607642518817074
8.22,0.07074329097750129
8.24,0.09531361096611747
8.26,0.11782654561611772
8.28,0.1324837880775334
8.3,0.13481987681507018
8.32,0.12524714017101662
8.34,0.10682695614586037
8.36,0.08245701146579033
8.38,0.053370710088443823
8.4,0.019318889071695964
8.42,-0.01912253042250525
8.44,-0.05938827634399603
8.46,-0.09766111011267203
8.48,-0.13062490068975827
8.5,-0.15681764124693628
8.52,-0.17552629765424987
8.540000000000001,-0.18580903896037684
8.56,-0.1877316865935675
8.58,-0.18282314167795494
8.6,-0.1727359367927335
8.620000000000001,-0.15791516882396991
8.64,-0.13785701564156844
8.66,-0.11279455998575698
8.68,-0.08443035614116197
8.700000000000001,-0.054876909189919526
8.72,-0.025565252520047124
8.74,0.0025010719211186307
8.76,0.028702958640083216
8.78,0.052699839955638705
8.8,0.07333791793222445
8.82,0.08938214510810341
8.84,0.10072334785513026
8.86,0.10793636392795997
8.88,0.1120123675938121
8.9,0.11389106160907032
8.92,0.11363873796350589
8.94,0.11100706224315797
8.96,0.10646595366969386
8.98,0.10039735298441342
9,0.09168271750264882
9.02,0.07734670839563981
9.040000000000001,0.05402046660154308
9.06,0.02020112261849668
9.08,-0.022737945227900968
9.1,-0.07077589546837038
9.120000000000001,-0.11794362397039926
9.14,-0.1572574980222274
9.16,-0.1830553159412538
9.18,-0.19371577532812756
9.200000000000001,-0.19172610083257663
9.22,-0.18088238581727709
9.24,-0.1645687467610009
9.26,-0.1448141177943119
9.28,-0.12101357802087521
9.3,-0.09080860375010479
9.32,-0.0529871398597233
9.34,-0.009702752974570976
9.36,0.03423097300242031
9.38,0.07397393679130912
9.4,0.10654082765371087
9.42,0.13026203237289743
9.44,0.1445776151229868
9.46,0.15121461202842165
9.48,0.15346646378348847
9.5,0.15430009139622186
9.52,0.15541811423830615
9.540000000000001,0.15659535182935483
9.56,0.1541579299745459
9.58,0.14295912984124765
9.6,0.12213077344587361
9.620000000000001,0.09644157180977894
9.64,0.07222909619468253
9.66,0.05378285893533664
9.68,0.042618147918057056
9.700000000000001,0.03758872955939597
9.72,0.03560992248179839
9.74,0.0336278211829584
9.76,0.02999020610438669
9.78,0.02417846521061218
9.8,0.016458897081104
9.82,0.007915434370811294
9.84,-0.0007254216001826492
9.86,-0.010064719854077711
9.88,-0.020870047506913198
9.9,-0.03313861317239368
9.92,-0.046216404406615286
9.94,-0.05922085165307939
9.96,-0.07108352968868421
9.98,-0.0797963820557562
10,-0.08286921673315395
10.02,-0.07951423215500264
10.040000000000001,-0.07163049040772337
10.06,-0.06199108268057224
10.08,-0.05201240295899541
10.1,-0.041395482358305896
10.120000000000001,-0.02960497697010191
10.14,-0.017427563575488657
10.16,-0.006394842796907218
10.18,0.002965913778884956
10.200000000000001,0.010812873922452467
10.22,0.01678247082351824
10.24,0.02069420516384685
10.26,0.02304517337134154
10.28,0.024104173005193658
10.3,0.023726781397604316
10.32,0.021719914117499548
10.34,0.01792159115708793
10.36,0.01203586706979047
10.38,0.003780587076881742
10.4,-0.006493452261450748
10.42,-0.017574327245871633
10.44,-0.02716706969970055
10.46,-0.03204870615956884
10.48,-0.030049916602008987
10.5,-0.022711061032188305
10.52,-0.015112531648122408
10.540000000000001,-0.012002167809783361
10.56,-0.014484355624295875
10.58,-0.020106602541416118
10.6,-0.02521392680801531
10.620000000000001,-0.02809492404282844
10.64,-0.030325729696648106
10.66,-0.034912565228856114
10.68,-0.04377560635198088
10.700000000000001,-0.05672823419408409
10.72,-0.0716351562491087
10.74,-0.08520539730203544
10.76,-0.09421424480352983
10.78,-0.09686519805580988
10.8,-0.09349237092663248
10.82,-0.08595699089743025
10.84,-0.07669877985781916
10.86,-0.06850785872252181
10.88,-0.06339922571287121
10.9,-0.06091075300304684
10.92,-0.05849610074682777
10.94,-0.05333177471533143
10.96,-0.0436857976184911
10.98,-0.029281824108434048
11,-0.010661511437534745
11.02,0.012127044210212056
11.040000000000001,0.03932319458730402
11.06,0.06895065414439454
11.08,0.09616486799824561
11.1,0.11639830243158383
11.120000000000001,0.12800344203297592
11.14,0.1320420911493774
11.16,0.13063707130320404
11.18,0.12528545965494128
11.200000000000001,0.1163582730877618
11.22,0.10379738030057824
11.24,0.08811339634131841
11.26,0.07080873370502289
11.28,0.05357120958493861
11.3,0.03676822471312048
11.32,0.01946563916217633
11.34,0.0010291521971185352
11.36,-0.017535262659142077
11.38,-0.033496207634993995
11.4,-0.043608379503501944
11.42,-0.04548748132292177
11.44,-0.03900327762404874
11.46,-0.026950187893318548
11.48,-0.013739647807144623
11.5,-0.0028780564533734294
11.52,0.004818583267273426
11.540000000000001,0.010573512411523506
11.56,0.01612857288348633
11.58,0.023022899457502813
11.6,0.03157262988691779
11.620000000000001,0.0405087736755255
11.64,0.04839605271924086
11.66,0.055092278835974125
11.68,0.06154018915550588
11.700000000000001,0.06813493235400324
11.72,0.0745232493910569
11.74,0.08034447741393581
11.76,0.08465822672745041
11.78,0.08556479959956338
11.8,0.08096096263416273
11.82,0.07026682905487602
11.84,0.05509209089007259
11.86,0.037720753591214295
11.88,0.020259270282449404
11.9,0.00452061297087354
11.92,-0.009084623803816754
11.94,-0.02175314335647751
11.96,-0.03497496248528353
11.98,-0.04943330918863518
12,-0.06476396507558628
12.02,-0.0800426835198232
12.040000000000001,-0.09412330570878424
12.06,-0.10605204872132247
12.08,-0.11499956225574874
12.1,-0.11959921409328458
12.120000000000001,-0.11874138114209876
12.14,-0.11303950362091165
12.16,-0.10450962854441052
12.18,-0.09456073833460912
12.200000000000001,-0.0830322947153617
12.22,-0.06944680272747948
12.24,-0.05458188079477624
12.26,-0.03999833080342323
12.280000000000001,-0.026582553924867063
12.3,-0.014616633029614808
12.32,-0.004126640014926448
12.34,0.005040404347561571
12.36,0.01298724093084862
12.38,0.02006475239915579
12.4,0.02689610436836145
12.42,0.03382367108016985
12.44,0.04043638591452567
12.46,0.0456956728753516
12.48,0.04915662729095438
12.5,0.05156369438687294
12.52,0.05401718362864418
12.540000000000001,0.05719721414341354
12.56,0.06076310898775413
12.58,0.06294165573505046
12.6,0.06090022072965224
12.620000000000001,0.051968269730493226
12.64,0.03563835554394338
12.66,0.014253790199749407
12.68,-0.008979172094133467
12.700000000000001,-0.03208173730441028
12.72,-0.05443669065684072
12.74,-0.07587900196760379
12.76,-0.09574275655735515
12.780000000000001,-0.1120249681515464
12.8,-0.12213388810322309
12.82,-0.124723399818853
12.84,-0.1202799389558929
12.86,-0.11008349919599116
12.88,-0.09518076578067797
12.9,-0.07662680842920598
12.92,-0.05576920613259877
12.94,-0.03378396191004581
12.96,-0.01129292287582204
12.98,0.011363060623853326
13,0.033491273616181
13.02,0.05410482345634649
13.040000000000001,0.07239202287717672
13.06,0.0877287479069972
13.08,0.09963069431651463
13.1,0.10783810157358127
13.120000000000001,0.11230035711048278
13.14,0.11361654246043996
13.16,0.11339927815472077
13.18,0.11317525092195918
13.200000000000001,0.11285795109352775
13.22,0.11068557227751567
13.24,0.10461765199781672
13.26,0.09350945494313194
13.280000000000001,0.07777927899034735
13.3,0.05969113993631608
13.32,0.04224882015005064
13.34,0.027422566916676685
13.36,0.015061416986654974
13.38,0.0036644782118515976
13.4,-0.007605306407094726
13.42,-0.01814258787769967
13.44,-0.026550473245002544
13.46,-0.031315909499521295
13.48,-0.031569174083851514
13.5,-0.02813794924608809
13.52,-0.023370598389410645
13.540000000000001,-0.01978413917521883
13.56,-0.018911915204877335
13.58,-0.020744759907849682
13.6,-0.02399038322500878
13.620000000000001,-0.027040583351947846
13.64,-0.029050734910123402
13.66,-0.030498990602291026
13.68,-0.03255465511641575
13.700000000000001,-0.035482456307642476
13.72,-0.03801976203568588
13.74,-0.038493142823136574
13.76,-0.035965357453399925
13.780000000000001,-0.030606177344749175
13.8,-0.023239374899984427
13.82,-0.014637619377411116
13.84,-0.005317910724045505
13.86,0.004816312685838814
13.88,0.0161396465933159
13.9,0.02813877787163726
13.92,0.039365875325809783
13.94,0.04810528544541852
13.96,0.05271383288954421
13.98,0.05226622647501373
14,0.0471199559772521
14.02,0.03834814060914165
14.040000000000001,0.026960663341453403
14.06,0.014365614251193664
14.08,0.002623689676988243
14.1,-0.007037429094642423
14.120000000000001,-0.01538815666081285
14.14,-0.023893217580110045
14.16,-0.03280260969374139
