# Strata Output: Acceleration Time Series
# Project:TST site
# Time (s),S-1-M-CHICHI06\TCU076-E.AT2,
0,3.12286518241082e-08
0.005,3.185156790633671e-08
0.01,3.2493331412837534e-08
0.015,3.3154347727670323e-08
0.02,3.383568243356998e-08
0.025,3.4537794714659514e-08
0.03,3.526183959276364e-08
0.035,3.600833758033495e-08
0.04,3.677854253983868e-08
0.045,3.75730449955406e-08
0.05,3.839320834945353e-08
0.055,3.9239703070899894e-08
0.06,4.011401427746415e-08
0.065,4.101690386219062e-08
0.07,4.194999258698073e-08
0.075,4.291414700063767e-08
0.08,4.391113943544238e-08
0.085,4.4941956440778726e-08
0.09,4.600854026270685e-08
0.095,4.71120152262522e-08
0.1,4.8254514646640643e-08
0.105,4.943732133757119e-08
0.11,5.066278413132703e-08
0.115,5.193236853184165e-08
0.12,5.324866731233339e-08
0.125,5.46133569715858e-08
0.13,5.6029307350465567e-08
0.135,5.7498439247995994e-08
0.14,5.9023938323812477e-08
0.145,6.060800891662311e-08
0.15,6.225419803676958e-08
0.155,6.396504005366761e-08
0.16,6.57444970390903e-08
0.165,6.759548862285334e-08
0.17,6.952245556478257e-08
0.17500000000000002,7.152876870711178e-08
0.18,7.361942324008335e-08
0.185,7.579832023500352e-08
0.19,7.807109996657791e-08
0.195,8.044228888563527e-08
0.2,8.291828133166058e-08
0.20500000000000002,8.550434434536368e-08
0.21,8.820775806590969e-08
0.215,9.103467030819465e-08
0.22,9.399340718068444e-08
0.225,9.709116881796485e-08
0.23,1.0033752328686081e-07
0.23500000000000001,1.0374093421213864e-07
0.24,1.0731245290383903e-07
0.245,1.1106206814780211e-07
0.25,1.1500261364557729e-07
0.255,1.1914592982293982e-07
0.26,1.2350700639291954e-07
0.265,1.2809994574014112e-07
0.27,1.3294236392382354e-07
0.275,1.380511451727909e-07
0.28,1.4344712894307207e-07
0.28500000000000003,1.491506455899049e-07
0.29,1.551865229050216e-07
0.295,1.6157939411183465e-07
0.3,1.683590649615272e-07
0.305,1.7555558763532887e-07
0.31,1.8320503981412147e-07
0.315,1.9134436262004978e-07
0.32,2.0001761727019104e-07
0.325,2.092705929997417e-07
0.33,2.191576273689235e-07
0.335,2.2973600323691082e-07
0.34,2.410734484454847e-07
0.34500000000000003,2.5324236340626596e-07
0.35000000000000003,2.6632816018751464e-07
0.355,2.8042340003132197e-07
0.36,2.956372005499861e-07
0.365,3.120894268346671e-07
0.37,3.2992150431315717e-07
0.375,3.49290918756842e-07
0.38,3.7038395132115307e-07
0.385,3.9341093958070487e-07
0.39,4.1862175601931266e-07
0.395,4.46302638382288e-07
0.4,4.767957716027974e-07
0.405,5.104991601010606e-07
0.41000000000000003,5.478926653566226e-07
0.41500000000000004,5.895436752405452e-07
0.42,6.361438596816254e-07
0.425,6.885259687688012e-07
0.43,7.477194252006324e-07
0.435,8.149889896196896e-07
0.44,8.919254887120667e-07
0.445,9.805289583707416e-07
0.45,1.0833689994090938e-06
0.455,1.2037621273405131e-06
0.46,1.3460780487830302e-06
0.465,1.5161235046591618e-06
0.47000000000000003,1.721764153424851e-06
0.47500000000000003,1.973755470807805e-06
0.48,2.2869979562094184e-06
0.485,2.682110950570736e-06
0.49,3.1871861488727996e-06
0.495,3.8381241078960245e-06
0.5,4.673379319914903e-06
0.505,5.714041647416684e-06
0.51,6.9257250927694045e-06
0.515,8.196614012809256e-06
0.52,9.391333713885935e-06
0.525,1.0434204369756626e-05
0.53,1.1317493225013112e-05
0.535,1.2058182324491502e-05
0.54,1.267412517042157e-05
0.545,1.3186231072030719e-05
0.55,1.3619294536885837e-05
0.555,1.3993351869839158e-05
0.56,1.4317333946622556e-05
0.5650000000000001,1.4590542067695968e-05
0.5700000000000001,1.4806295112747235e-05
0.5750000000000001,1.4954844931250204e-05
0.58,1.502616913878119e-05
0.585,1.5012591540624089e-05
0.59,1.4910839777560013e-05
0.595,1.4723381592668725e-05
0.6,1.4458734733074602e-05
0.605,1.4131235942018578e-05
0.61,1.3759831796329145e-05
0.615,1.336377598399052e-05
0.62,1.2958442886627278e-05
0.625,1.2556057699317468e-05
0.63,1.2166503035430886e-05
0.635,1.1795099732765018e-05
0.64,1.1442845473691264e-05
0.645,1.1109102279498312e-05
0.65,1.0790472354696534e-05
0.655,1.047879896052104e-05
0.66,1.0166027705499259e-05
0.665,9.850625949953478e-06
0.67,9.535458641214065e-06
0.675,9.221572047899425e-06
0.68,8.908713908375663e-06
0.685,8.603002258147208e-06
0.6900000000000001,8.320475138614634e-06
0.6950000000000001,8.07789045464293e-06
0.7000000000000001,7.879295717379952e-06
0.705,7.714374616348385e-06
0.71,7.5678714664935894e-06
0.715,7.427011180170269e-06
0.72,7.284226312880133e-06
0.725,7.138937973688859e-06
0.73,6.993003698460288e-06
0.735,6.839953559281121e-06
0.74,6.664575292134752e-06
0.745,6.457776324239243e-06
0.75,6.22629168012356e-06
0.755,5.986598597760621e-06
0.76,5.756241902865942e-06
0.765,5.54852177600362e-06
0.77,5.365792256136546e-06
0.775,5.200123676276579e-06
0.78,5.048258385996526e-06
0.785,4.92274192095923e-06
0.79,4.840194522817032e-06
0.795,4.798014957703389e-06
0.8,4.769418712629033e-06
0.805,4.721942325561902e-06
0.81,4.6338144487053755e-06
0.8150000000000001,4.49776123478018e-06
0.8200000000000001,4.3264280595332725e-06
0.8250000000000001,4.1578345252206165e-06
0.8300000000000001,4.03428058432955e-06
0.835,3.960066090823845e-06
0.84,3.896357224786794e-06
0.845,3.811352283880905e-06
0.85,3.7189090863298476e-06
0.855,3.65648561436436e-06
0.86,3.6388169736543578e-06
0.865,3.6452367293226247e-06
0.87,3.64230869742345e-06
0.875,3.6079960587588398e-06
0.88,3.5438234390457028e-06
0.885,3.4722030184261818e-06
0.89,3.413793150288023e-06
0.895,3.3667346830099455e-06
0.9,3.316462472950859e-06
0.905,3.2576469022226884e-06
0.91,3.1921973276673373e-06
0.915,3.112677827471184e-06
0.92,3.0047518172510305e-06
0.925,2.8670746542121976e-06
0.93,2.7140699215470825e-06
0.935,2.5544261864616677e-06
0.9400000000000001,2.3809636579494332e-06
0.9450000000000001,2.1867273089092633e-06
0.9500000000000001,1.9772807714257094e-06
0.9550000000000001,1.7640732649536566e-06
0.96,1.558812938570958e-06
0.965,1.3730033930166969e-06
0.97,1.2085097474064482e-06
0.975,1.0521040235686187e-06
0.98,8.901392631039328e-07
0.985,7.300298421861741e-07
0.99,6.129929293052345e-07
0.995,6.019930288726739e-07
1,7.34336522990947e-07
1.0050000000000001,9.785109962581141e-07
1.01,1.2452386955134346e-06
1.0150000000000001,1.4402511849763981e-06
1.02,1.5158101640974206e-06
1.025,1.4974464075453619e-06
1.03,1.4641226188704907e-06
1.035,1.4798391025984489e-06
1.04,1.5453101258746664e-06
1.045,1.6285533845464648e-06
1.05,1.7118049232216821e-06
1.055,1.7755137646968129e-06
1.06,1.7735017179521176e-06
1.065,1.6759159575459054e-06
1.07,1.5199062775425223e-06
1.075,1.3694449901321641e-06
1.08,1.2274384105805374e-06
1.085,1.0441730252325692e-06
1.09,8.304744816736565e-07
1.095,6.889055975791652e-07
1.1,6.883195142108194e-07
1.105,7.736271322963895e-07
1.11,8.351957248058357e-07
1.115,8.116733309868557e-07
1.12,7.167907040555134e-07
1.125,6.153802119920462e-07
1.1300000000000001,5.587792790369564e-07
1.135,5.032873975831101e-07
1.1400000000000001,3.32469026307573e-07
1.145,-1.0456106166910054e-08
1.1500000000000001,-4.740310937589658e-07
1.155,-9.94682255950991e-07
1.16,-1.5559876109635705e-06
1.165,-2.1310194033565477e-06
1.17,-2.6534597691693373e-06
1.175,-3.078192400575773e-06
1.18,-3.389969633382537e-06
1.185,-3.533789609894968e-06
1.19,-3.437604368750054e-06
1.195,-3.1316004773098702e-06
1.2,-2.757632154196413e-06
1.205,-2.436214255643872e-06
1.21,-2.1862193591538868e-06
1.215,-1.9826428474382836e-06
1.22,-1.823748834434999e-06
1.225,-1.7044547345531363e-06
1.23,-1.5788607069845426e-06
1.235,-1.4053736785606314e-06
1.24,-1.1928624706325459e-06
1.245,-9.59897014911987e-07
1.25,-6.932309429632229e-07
1.2550000000000001,-3.9114670481811864e-07
1.26,-1.035585427993758e-07
1.2650000000000001,1.0986784807896584e-07
1.27,2.3009331216382018e-07
1.2750000000000001,2.8263800341313884e-07
1.28,3.323706916106057e-07
1.285,4.6812850331014574e-07
1.29,7.284145836626837e-07
1.295,1.020086272370527e-06
1.3,1.1676458911049613e-06
1.305,1.0839624581401267e-06
1.31,8.605766374516593e-07
1.315,6.618601243644484e-07
1.32,5.637666251250539e-07
1.325,5.431737196407127e-07
1.33,5.859677622170035e-07
1.335,6.944179171324973e-07
1.34,7.90394626808409e-07
1.345,7.356763168042982e-07
1.35,4.921952522586606e-07
1.355,2.2765322597692445e-07
1.36,2.7103906121192945e-07
1.365,9.192776941411276e-07
1.37,2.1380190942088785e-06
1.375,3.454580086591119e-06
1.3800000000000001,4.3575318276409275e-06
1.385,4.816195092335467e-06
1.3900000000000001,5.181467398950022e-06
1.395,5.622731056440738e-06
1.4000000000000001,5.9611640936298764e-06
1.405,6.062995027025513e-06
1.41,6.090962004655973e-06
1.415,6.2414939276683284e-06
1.42,6.430451121969953e-06
1.425,6.3901118603264705e-06
1.43,5.9642155812825855e-06
1.435,5.190307191982268e-06
1.44,4.194350886601967e-06
1.445,3.1222279614389118e-06
1.45,2.1275248104648097e-06
1.455,1.3329165755543283e-06
1.46,7.683329368015745e-07
1.465,3.531350591442664e-07
1.47,-6.481793024814913e-08
1.475,-6.537147879913047e-07
1.48,-1.5275430115430733e-06
1.485,-2.6856622471126286e-06
1.49,-4.055066002039872e-06
1.495,-5.6190639919018305e-06
1.5,-7.435355171940201e-06
1.5050000000000001,-9.42385413587315e-06
1.51,-1.118395596138032e-05
1.5150000000000001,-1.2262823456449416e-05
1.52,-1.2657102918586994e-05
1.5250000000000001,-1.2737119084629183e-05
1.53,-1.2652986319798118e-05
1.5350000000000001,-1.2234533630832504e-05
1.54,-1.1471065200409805e-05
1.545,-1.0647299561740082e-05
1.55,-9.974264363163078e-06
1.555,-9.434885194019577e-06
1.56,-9.023340444873413e-06
1.565,-8.842715162521013e-06
1.57,-8.923928171169236e-06
1.575,-9.150517078965104e-06
1.58,-9.377830852227774e-06
1.585,-9.538873902142672e-06
1.59,-9.696976660823447e-06
1.595,-1.003740246350153e-05
1.6,-1.0680470935626444e-05
1.605,-1.1478861394690045e-05
1.61,-1.2153920934056852e-05
1.615,-1.2627459250829688e-05
1.62,-1.2999189725516585e-05
1.625,-1.3134844354441705e-05
1.6300000000000001,-1.2583514706731627e-05
1.635,-1.1137333159922993e-05
1.6400000000000001,-9.20139764120016e-06
1.645,-7.367642828943697e-06
1.6500000000000001,-5.900756999492994e-06
1.655,-4.8384413516415655e-06
1.6600000000000001,-4.275569625503053e-06
1.665,-4.2731894747995565e-06
1.67,-4.6649960636607586e-06
1.675,-5.175627490766015e-06
1.68,-5.654583347364237e-06
1.685,-6.072474266561097e-06
1.69,-6.328845080278399e-06
1.695,-6.152169821609573e-06
1.7,-5.319932360582282e-06
1.705,-4.094961828270659e-06
1.71,-3.3086800873492372e-06
1.715,-3.749833313214058e-06
1.72,-5.390396586592306e-06
1.725,-7.371804812720235e-06
1.73,-8.86407541609827e-06
1.735,-9.677120750257106e-06
1.74,-9.89230298960291e-06
1.745,-9.367694856866224e-06
1.75,-7.965167928046883e-06
1.7550000000000001,-5.9272844833565455e-06
1.76,-3.695468795769287e-06
1.7650000000000001,-1.5501598149100904e-06
1.77,3.942137115995943e-07
1.7750000000000001,2.0436375396857855e-06
1.78,3.369934750004067e-06
1.7850000000000001,4.499938249012033e-06
1.79,5.607808684183229e-06
1.795,6.7443322945886e-06
1.8,7.81808063804058e-06
1.805,8.647259561845987e-06
1.81,8.927413353735237e-06
1.815,8.267713408409735e-06
1.82,6.531446420056653e-06
1.825,4.235964034996137e-06
1.83,2.403497424703208e-06
1.835,1.777849875240412e-06
1.84,2.2498125305558492e-06
1.845,3.2056730852326102e-06
1.85,4.228746542888985e-06
1.855,5.208425687614393e-06
1.86,5.9958999562094305e-06
1.865,6.300271683077064e-06
1.87,5.9384621741127225e-06
1.875,5.03904942643235e-06
1.8800000000000001,3.996438400884137e-06
1.885,3.3324738638953223e-06
1.8900000000000001,3.5129723954122014e-06
1.895,4.658880354390106e-06
1.9000000000000001,6.4517570986049185e-06
1.905,8.420904974718516e-06
1.9100000000000001,1.0142832504617655e-05
1.915,1.114570827722808e-05
1.92,1.1061017785777816e-05
1.925,1.00780426075707e-05
1.93,8.89264269898258e-06
1.935,7.994102069467653e-06
1.94,7.291346013248088e-06
1.945,6.578531790431177e-06
1.95,5.942574357204176e-06
1.955,5.454949981442082e-06
1.96,4.863458754456377e-06
1.965,3.880827613315999e-06
1.97,2.4636985875955902e-06
1.975,5.929152458206336e-07
1.98,-1.8666171763828025e-06
1.985,-4.780932324356281e-06
1.99,-7.508322626290054e-06
1.995,-9.419457225365255e-06
2,-1.0427344135651255e-05
2.005,-1.0716337260240516e-05
2.0100000000000002,-1.0338350433848225e-05
2.015,-9.407546378199645e-06
2.02,-8.274545377908467e-06
2.025,-7.174561884966354e-06
2.0300000000000002,-6.0400646467993914e-06
2.035,-4.857743501327437e-06
2.04,-3.844918015592862e-06
2.045,-3.1065506173407075e-06
2.05,-2.5111756991034594e-06
2.055,-2.07616248843107e-06
2.06,-2.060855720218316e-06
2.065,-2.4963427395056315e-06
2.07,-3.0224104479003227e-06
2.075,-3.4175268162354546e-06
2.08,-4.030458080336959e-06
2.085,-5.468417766545017e-06
2.09,-7.886143364635295e-06
2.095,-1.0596668823833305e-05
2.1,-1.2370266503899371e-05
2.105,-1.2323538820660965e-05
2.11,-1.0787743571205695e-05
2.115,-9.193284011513787e-06
2.12,-8.806511838645367e-06
2.125,-9.5738804623e-06
2.13,-1.0393030224557695e-05
2.1350000000000002,-1.045262386268522e-05
2.14,-9.877406874119798e-06
2.145,-8.991319323491071e-06
2.15,-7.643380746523976e-06
2.1550000000000002,-5.637694764059751e-06
2.16,-3.2298812239199074e-06
2.165,-7.889246899072678e-07
2.17,1.596979683990062e-06
2.1750000000000003,3.921014067318672e-06
2.18,5.992645070794693e-06
2.185,7.521514091934902e-06
2.19,8.32396522522368e-06
2.195,8.44331449951377e-06
2.2,8.166066996425749e-06
2.205,7.894110596450232e-06
2.21,7.853674984863535e-06
2.215,7.844981119885145e-06
2.22,7.41948693090563e-06
2.225,6.465136509069289e-06
2.23,5.381853409191098e-06
2.235,4.425084146754502e-06
2.24,3.2320735875531895e-06
2.245,1.3215126838339672e-06
2.25,-1.3151971967444716e-06
2.255,-4.455736308185494e-06
2.2600000000000002,-8.197241934728532e-06
2.265,-1.2942254690129429e-05
2.27,-1.8895138144637573e-05
2.275,-2.5718627921512634e-05
2.2800000000000002,-3.263011382923885e-05
2.285,-3.873574629113198e-05
2.29,-4.33413073730969e-05
2.295,-4.608312069924627e-05
2.3000000000000003,-4.6859471003113844e-05
2.305,-4.577007779566966e-05
2.31,-4.3211373732382e-05
2.315,-3.985869031703827e-05
2.32,-3.6170481484909845e-05
2.325,-3.1878614897885236e-05
2.33,-2.646220324745712e-05
2.335,-2.0148450572767946e-05
2.34,-1.3877226962485548e-05
2.345,-8.19785695498409e-06
2.35,-2.651477202292283e-06
2.355,3.6899827881384997e-06
2.36,1.1375814900656515e-05
2.365,2.00796832589205e-05
2.37,2.8395166155689263e-05
2.375,3.428692566663251e-05
2.38,3.6579393959694284e-05
2.3850000000000002,3.61552282160081e-05
2.39,3.5020273231554e-05
2.395,3.419233367977225e-05
2.4,3.3238194096814165e-05
2.4050000000000002,3.167837361568676e-05
2.41,2.9815443779790085e-05
2.415,2.8082460824573796e-05
2.42,2.6410831714447655e-05
2.4250000000000003,2.454439169836345e-05
2.43,2.249851220125551e-05
2.435,2.042338876632459e-05
2.44,1.8281630407129076e-05
2.445,1.5903807086005555e-05
2.45,1.3242580769040677e-05
2.455,1.0387250112513402e-05
2.46,7.41048978362045e-06
2.465,4.3782947060998865e-06
2.47,1.4205482206671424e-06
2.475,-1.3747956537193721e-06
2.48,-4.0469828038053716e-06
2.485,-6.636555078107846e-06
2.49,-9.146576368338751e-06
2.495,-1.1768323084315291e-05
2.5,-1.4884722199514989e-05
2.505,-1.8524021346194785e-05
2.5100000000000002,-2.200936807071703e-05
2.515,-2.4674986212202064e-05
2.52,-2.6793981922709106e-05
2.525,-2.899537177215659e-05
2.5300000000000002,-3.1000481395370094e-05
2.535,-3.208153642255601e-05
2.54,-3.2382386450224214e-05
2.545,-3.252780020190621e-05
2.5500000000000003,-3.232493569265541e-05
2.555,-3.1016755803883986e-05
2.56,-2.861307795574936e-05
2.565,-2.6033936855247022e-05
2.57,-2.4012862623105792e-05
2.575,-2.2595574583988614e-05
2.58,-2.1683544778350234e-05
2.585,-2.1390511654397904e-05
2.59,-2.1711480016456663e-05
2.595,-2.2328255756588227e-05
2.6,-2.295698733160549e-05
2.605,-2.35613130743904e-05
2.61,-2.4096485292248492e-05
2.615,-2.440823244441589e-05
2.62,-2.4539228519142794e-05
2.625,-2.4749196788826973e-05
2.63,-2.509880106587785e-05
2.6350000000000002,-2.544622950011334e-05
2.64,-2.5847840351165277e-05
2.645,-2.6436025825956752e-05
2.65,-2.7022080087544052e-05
2.6550000000000002,-2.7380958146082242e-05
2.66,-2.7727904071470834e-05
2.665,-2.834355014127051e-05
2.67,-2.887771675177297e-05
2.6750000000000003,-2.8528241313833538e-05
2.68,-2.6912307454405633e-05
2.685,-2.440149126185712e-05
2.69,-2.162417316996961e-05
2.695,-1.8953773267806157e-05
2.7,-1.6376011655139192e-05
2.705,-1.3605081648367252e-05
2.71,-1.0450361765708759e-05
2.715,-7.2123943865594e-06
2.72,-4.576817706307043e-06
2.725,-2.944817020253058e-06
2.73,-2.0166312242515464e-06
2.735,-1.254206017357677e-06
2.74,-5.141219045166792e-07
2.745,6.836341781649438e-08
2.75,5.43543392218208e-07
2.755,1.1080023397917337e-06
2.7600000000000002,1.8046213092363575e-06
2.765,2.6512996749344982e-06
2.77,3.873287696619413e-06
2.775,5.6001926577747735e-06
2.7800000000000002,7.478501061980036e-06
2.785,8.870943427035678e-06
2.79,9.274060842269643e-06
2.795,8.47869489225561e-06
2.8000000000000003,6.666880198286112e-06
2.805,4.4567577749042074e-06
2.81,2.5070400383592695e-06
2.815,9.260229968786875e-07
2.82,-6.142255312285331e-07
2.825,-2.1039919350733376e-06
2.83,-3.0327653902071136e-06
2.835,-3.1631292872008958e-06
2.84,-2.9730920670273677e-06
2.845,-3.187894597450663e-06
2.85,-4.2399848399890006e-06
2.855,-6.207575062050387e-06
2.86,-8.950417891406831e-06
2.865,-1.2090786147794008e-05
2.87,-1.491255322738597e-05
2.875,-1.6599174782945022e-05
2.88,-1.680808870288107e-05
2.8850000000000002,-1.587072801233081e-05
2.89,-1.4389510344487187e-05
2.895,-1.2855260060024228e-05
2.9,-1.154713473802383e-05
2.9050000000000002,-1.0546419314688525e-05
2.91,-9.94214741060661e-06
2.915,-1.0119757085350955e-05
2.92,-1.1522258057502248e-05
2.9250000000000003,-1.3874499841402812e-05
2.93,-1.6142668325373646e-05
2.935,-1.765861084265259e-05
2.94,-1.8642973576996754e-05
2.945,-1.928618058458537e-05
2.95,-1.918777183197371e-05
2.955,-1.8137832691257183e-05
2.96,-1.6678530250605558e-05
2.965,-1.551284699573791e-05
2.97,-1.490590187379473e-05
2.975,-1.4853984154489174e-05
2.98,-1.5421332051367712e-05
2.985,-1.6701689894884874e-05
2.99,-1.8608846120855704e-05
2.995,-2.085352532382331e-05
3,-2.314721108524989e-05
3.005,-2.5400718523775015e-05
3.0100000000000002,-2.7680141988685267e-05
3.015,-2.99889670169532e-05
3.02,-3.2112009889541944e-05
3.025,-3.355388462012973e-05
3.0300000000000002,-3.370910446695053e-05
3.035,-3.245432039517522e-05
3.04,-3.0506529575756496e-05
3.045,-2.8735683309684932e-05
3.0500000000000003,-2.7292678723640423e-05
3.055,-2.5803863820285426e-05
3.06,-2.4005416776701717e-05
3.065,-2.181999691537356e-05
3.0700000000000003,-1.9182508226909508e-05
3.075,-1.6059308392202278e-05
3.08,-1.2465423881057836e-05
3.085,-8.367560505591325e-06
3.09,-3.654101856893033e-06
3.095,1.7573102397393868e-06
3.1,7.736007072933104e-06
3.105,1.3745596288102141e-05
3.11,1.8872045294157735e-05
3.115,2.2310461399457627e-05
3.12,2.397166860553158e-05
3.125,2.4436313673363577e-05
3.13,2.408469117364895e-05
3.1350000000000002,2.2453973688685303e-05
3.14,1.8928352725002183e-05
3.145,1.3916917158818304e-05
3.15,8.673888338018578e-06
3.1550000000000002,4.030214600670857e-06
3.16,-7.975471281035821e-08
3.165,-4.036591850523715e-06
3.17,-8.123915459250162e-06
3.1750000000000003,-1.2485309707046269e-05
3.18,-1.6835419973108347e-05
3.185,-2.030142732436892e-05
3.19,-2.2116149101508202e-05
3.1950000000000003,-2.2429984613126246e-05
3.2,-2.200837471952987e-05
3.205,-2.1330594676462466e-05
3.21,-2.0440338204681e-05
3.215,-1.945258279434684e-05
3.22,-1.8636840494239663e-05
3.225,-1.7915290014507354e-05
3.23,-1.68377670146641e-05
3.235,-1.5368459127939903e-05
3.24,-1.4173845922558299e-05
3.245,-1.3818932357986268e-05
3.25,-1.4154190877272054e-05
3.255,-1.4713564282534933e-05
3.2600000000000002,-1.5309375463883727e-05
3.265,-1.608999118421729e-05
3.27,-1.7279598368206744e-05
3.275,-1.8883339691112114e-05
3.2800000000000002,-2.0473942814543388e-05
3.285,-2.136150211555077e-05
3.29,-2.121248157259381e-05
3.295,-2.0417770161465514e-05
3.3000000000000003,-1.960923779205833e-05
3.305,-1.8922698852827875e-05
3.31,-1.8007225637117117e-05
