# Strata Output: Acceleration Time Series
# Project:TST site
# Time (s),S-1-M-ITALY\B-CTR000.AT2,
0,5.471538965099801e-07
0.0024,5.506897193027542e-07
0.0048,5.542549279933233e-07
0.0072,5.578498420466279e-07
0.0096,5.6147478554631e-07
0.011999999999999999,5.65130087313975e-07
0.0144,5.688160809694731e-07
0.0168,5.725331050770507e-07
0.0192,5.762815031293032e-07
0.021599999999999998,5.800616238039145e-07
0.023999999999999997,5.838738209055438e-07
0.026399999999999996,5.877184535739923e-07
0.0288,5.915958863397144e-07
0.0312,5.955064892274676e-07
0.0336,5.994506379028963e-07
0.036,6.034287137488597e-07
0.0384,6.074411039712502e-07
0.040799999999999996,6.11488201762491e-07
0.043199999999999995,6.155704063995474e-07
0.045599999999999995,6.196881233289296e-07
0.047999999999999994,6.238417643531737e-07
0.05039999999999999,6.280317477180131e-07
0.05279999999999999,6.322584982719722e-07
0.05519999999999999,6.365224475782562e-07
0.0576,6.408240340730449e-07
0.06,6.451637031873567e-07
0.0624,6.495419075278939e-07
0.0648,6.539591069854623e-07
0.0672,6.584157689401029e-07
0.0696,6.629123683278783e-07
0.072,6.674493879405465e-07
0.0744,6.720273184533164e-07
0.0768,6.766466586776836e-07
0.07919999999999999,6.81307915733168e-07
0.08159999999999999,6.860116051847908e-07
0.08399999999999999,6.90758251272058e-07
0.08639999999999999,6.955483870681211e-07
0.08879999999999999,7.003825546740665e-07
0.09119999999999999,7.052613054669806e-07
0.09359999999999999,7.101852002226813e-07
0.09599999999999999,7.151548094058513e-07
0.09839999999999999,7.201707133205243e-07
0.10079999999999999,7.252335024136628e-07
0.10319999999999999,7.303437774000569e-07
0.10559999999999999,7.355021495828157e-07
0.10799999999999998,7.407092410502573e-07
0.11039999999999998,7.459656849482614e-07
0.11279999999999998,7.512721256910373e-07
0.1152,7.566292192959262e-07
0.1176,7.620376335915678e-07
0.12,7.67498048499359e-07
0.1224,7.730111563634853e-07
0.1248,7.785776622046239e-07
0.12719999999999998,7.841982839853565e-07
0.1296,7.898737530477534e-07
0.13199999999999998,7.95604814263427e-07
0.1344,8.0139222650581e-07
0.13679999999999998,8.072367628973539e-07
0.1392,8.131392111788082e-07
0.14159999999999998,8.191003741214335e-07
0.144,8.251210697919817e-07
0.14639999999999997,8.312021320058911e-07
0.1488,8.373444107208528e-07
0.15119999999999997,8.435487723878751e-07
0.1536,8.498161003953723e-07
0.156,8.561472955080502e-07
0.15839999999999999,8.625432762719644e-07
0.1608,8.690049795058794e-07
0.16319999999999998,8.755333607258437e-07
0.1656,8.821293946348145e-07
0.16799999999999998,8.887940756708305e-07
0.1704,8.955284184255142e-07
0.17279999999999998,9.023334582195666e-07
0.1752,9.092102517081848e-07
0.17759999999999998,9.161598772822178e-07
0.18,9.23183435807158e-07
0.18239999999999998,9.302820511049611e-07
0.1848,9.374568706438151e-07
0.18719999999999998,9.44709066114286e-07
0.1896,9.52039834098053e-07
0.19199999999999998,9.594503967873852e-07
0.1944,9.669420026098594e-07
0.19679999999999997,9.745159269675684e-07
0.1992,9.821734730528753e-07
0.20159999999999997,9.899159724859241e-07
0.204,9.977447862132266e-07
0.20639999999999997,1.0056613052679045e-06
0.20879999999999999,1.0136669516197052e-06
0.21119999999999997,1.0217631790748877e-06
0.21359999999999998,1.0299514741752446e-06
0.21599999999999997,1.0382333570689324e-06
0.21839999999999998,1.0466103825374285e-06
0.22079999999999997,1.055084140989527e-06
0.22319999999999998,1.0636562594514325e-06
0.22559999999999997,1.0723284026704782e-06
0.22799999999999998,1.0811022741780774e-06
0.2304,1.0899796174424468e-06
0.23279999999999998,1.0989622170954907e-06
0.2352,1.1080519000703449e-06
0.23759999999999998,1.1172505369249716e-06
0.24,1.1265600430911597e-06
0.24239999999999998,1.1359823803091412e-06
0.2448,1.145519557962461e-06
0.24719999999999998,1.155173634530808e-06
0.2496,1.1649467191235103e-06
0.252,1.1748409730243067e-06
0.25439999999999996,1.1848586112959658e-06
0.2568,1.1950019044603657e-06
0.2592,1.2052731802180388e-06
0.2616,1.2156748252839427e-06
0.26399999999999996,1.2262092871794295e-06
0.26639999999999997,1.2368790762228415e-06
0.2688,1.2476867675201059e-06
0.2712,1.2586350030394638e-06
0.27359999999999995,1.2697264937373748e-06
0.27599999999999997,1.2809640218856474e-06
0.2784,1.2923504432719368e-06
0.2808,1.3038886897263687e-06
0.28319999999999995,1.3155817715449488e-06
0.28559999999999997,1.3274327801454238e-06
0.288,1.339444890731817e-06
0.2904,1.3516213651497832e-06
0.29279999999999995,1.363965554744565e-06
0.29519999999999996,1.3764809034505368e-06
0.2976,1.3891709509293176e-06
0.3,1.4020393358362567e-06
0.30239999999999995,1.4150897992369712e-06
0.30479999999999996,1.4283261881748046e-06
0.3072,1.4417524593744618e-06
0.3096,1.4553726830427878e-06
0.312,1.4691910469158783e-06
0.31439999999999996,1.4832118604180782e-06
0.31679999999999997,1.4974395589753724e-06
0.3192,1.5118787085837797e-06
0.3216,1.5265340105009122e-06
0.32399999999999995,1.5414103061613154e-06
0.32639999999999997,1.5565125822930333e-06
0.3288,1.5718459762666297e-06
0.3312,1.587415781668854e-06
0.33359999999999995,1.6032274541209042e-06
0.33599999999999997,1.619286617303121e-06
0.3384,1.6355990693708632e-06
0.3408,1.6521707894649242e-06
0.34319999999999995,1.6690079447024682e-06
0.34559999999999996,1.686116897331897e-06
0.348,1.7035042123213977e-06
0.3504,1.7211766651660656e-06
0.35279999999999995,1.739141250244068e-06
0.35519999999999996,1.7574051892933694e-06
0.3576,1.7759759405415816e-06
0.36,1.7948612080656644e-06
0.36239999999999994,1.8140689517232171e-06
0.36479999999999996,1.833607397441124e-06
0.36719999999999997,1.853485048097474e-06
0.3696,1.8737106948441014e-06
0.37199999999999994,1.8942934290059214e-06
0.37439999999999996,1.9152426545431834e-06
0.37679999999999997,1.9365681012119505e-06
0.3792,1.958279838136577e-06
0.38159999999999994,1.9803882883969963e-06
0.38399999999999995,2.0029042440384177e-06
0.38639999999999997,2.0258388819952185e-06
0.3888,2.0492037808076094e-06
0.3912,2.073010938140604e-06
0.39359999999999995,2.09727278925102e-06
0.39599999999999996,2.1220022264345957e-06
0.3984,2.1472126193751624e-06
0.4008,2.172917836747159e-06
0.40319999999999995,2.1991322688156063e-06
0.40559999999999996,2.22587085131718e-06
0.408,2.2531490906314796e-06
0.4104,2.2809830903262044e-06
0.41279999999999994,2.3093895791083146e-06
0.41519999999999996,2.3383859404721948e-06
0.41759999999999997,2.367990243797604e-06
0.42,2.3982212774234828e-06
0.42239999999999994,2.4290985834642852e-06
0.42479999999999996,2.4606424946737215e-06
0.42719999999999997,2.4928741734695304e-06
0.4296,2.525815653232907e-06
0.43199999999999994,2.559489882046956e-06
0.43439999999999995,2.593920769088398e-06
0.43679999999999997,2.629133233733259e-06
0.4392,2.665153257772909e-06
0.44159999999999994,2.702007940762154e-06
0.44399999999999995,2.7397255588263577e-06
0.44639999999999996,2.7783356272108035e-06
0.4488,2.8178689667015182e-06
0.45119999999999993,2.858357774355155e-06
0.45359999999999995,2.8998356988996153e-06
0.45599999999999996,2.9423379208175576e-06
0.4584,2.9859012380209223e-06
0.4608,3.0305641570193214e-06
0.46319999999999995,3.0763669902696875e-06
0.46559999999999996,3.123351960246668e-06
0.46799999999999997,3.1715633105757376e-06
0.4704,3.2210474248832184e-06
0.47279999999999994,3.27185295400204e-06
0.47519999999999996,3.3240309521397205e-06
0.47759999999999997,3.3776350228119847e-06
0.48,3.432721475194036e-06
0.48239999999999994,3.4893494918537925e-06
0.48479999999999995,3.5475813088088094e-06
0.48719999999999997,3.60748240864979e-06
0.4896,3.6691217281306093e-06
0.49199999999999994,3.732571881175689e-06
0.49439999999999995,3.797909398388499e-06
0.49679999999999996,3.8652149846688325e-06
0.4992,3.93457379599141e-06
0.5015999999999999,4.006075736890569e-06
0.504,4.079815780095643e-06
0.5064,4.155894309758579e-06
0.5087999999999999,4.234417489666772e-06
0.5112,4.315497657957713e-06
0.5136,4.39925374942137e-06
0.5159999999999999,4.485811746504874e-06
0.5184,4.575305159682169e-06
0.5207999999999999,4.667875537243703e-06
0.5232,4.763673004170934e-06
0.5256,4.862856828387799e-06
0.5279999999999999,4.965596011452704e-06
0.5304,5.072069899535942e-06
0.5327999999999999,5.182468807276562e-06
0.5351999999999999,5.296994645430908e-06
0.5376,5.41586153876117e-06
0.5399999999999999,5.539296416656693e-06
0.5424,5.667539554338636e-06
0.5448,5.800845035776141e-06
0.5471999999999999,5.939481104201088e-06
0.5496,6.083730359316232e-06
0.5519999999999999,6.23388975540088e-06
0.5544,6.390270351492936e-06
0.5568,6.553196766248139e-06
0.5591999999999999,6.723006298186768e-06
0.5616,6.90004769079777e-06
0.564,7.084679553575243e-06
0.5663999999999999,7.277268497935323e-06
0.5688,7.478187111962095e-06
0.5711999999999999,7.687811975082055e-06
0.5736,7.906521995963966e-06
0.576,8.13469742477382e-06
0.5783999999999999,8.37271992351006e-06
0.5808,8.620974048405033e-06
0.5831999999999999,8.879850386888325e-06
0.5855999999999999,9.149750396199783e-06
0.588,9.431092731611315e-06
0.5903999999999999,9.724320579927452e-06
0.5928,1.0029909293168091e-05
0.5952,1.0348373509127852e-05
0.5975999999999999,1.0680272983991283e-05
0.6,1.102621654006562e-05
0.6023999999999999,1.1386863798164565e-05
0.6047999999999999,1.176292465273733e-05
0.6072,1.2155156688886204e-05
0.6095999999999999,1.2564360896978106e-05
0.612,1.2991376102646119e-05
0.6144,1.3437072521525906e-05
0.6167999999999999,1.3902344799866046e-05
0.6192,1.4388104849728456e-05
0.6215999999999999,1.4895274745080669e-05
0.624,1.5424779918244597e-05
0.6264,1.5977542872141524e-05
0.6287999999999999,1.6554477591031248e-05
0.6312,1.715648477838304e-05
0.6335999999999999,1.7784447975919768e-05
0.6359999999999999,1.8439230528014847e-05
0.6384,1.912167326738857e-05
0.6407999999999999,1.9832592722968735e-05
0.6432,2.0572779603490385e-05
0.6456,2.1342997294623298e-05
0.6479999999999999,2.214398012265041e-05
0.6504,2.2976431179778796e-05
0.6527999999999999,2.384101956773864e-05
0.6551999999999999,2.4738376991087086e-05
0.6576,2.5669093715153165e-05
0.6599999999999999,2.6633713989506763e-05
0.6624,2.7632731122426e-05
0.6648,2.8666582467944516e-05
0.6671999999999999,2.973564464819726e-05
0.6696,3.084022937387383e-05
0.6719999999999999,3.1980580238820264e-05
0.6743999999999999,3.315687085051024e-05
0.6768,3.43692046150664e-05
0.6791999999999999,3.561761642731123e-05
0.6816,3.690207642685322e-05
0.6839999999999999,3.822249587549179e-05
0.6863999999999999,3.957873509463965e-05
0.6888,4.0970613283129585e-05
0.6911999999999999,4.239791992195984e-05
0.6936,4.386042737422478e-05
0.696,4.535790421449111e-05
0.6983999999999999,4.689012877664543e-05
0.7008,4.84569023964295e-05
0.7031999999999999,5.00580618370488e-05
0.7055999999999999,5.169349041622406e-05
0.708,5.3363127384012413e-05
0.7103999999999999,5.506697512339094e-05
0.7128,5.680510374827258e-05
0.7152,5.857765266008913e-05
0.7175999999999999,6.038482860145235e-05
0.72,6.222689973388167e-05
0.7223999999999999,6.41041852888448e-05
0.7247999999999999,6.601704041816586e-05
0.7272,6.79658360176327e-05
0.7295999999999999,6.995093351791566e-05
0.732,7.197265491900108e-05
0.7343999999999999,7.403124866272616e-05
0.7367999999999999,7.612685225731556e-05
0.7392,7.82594528472013e-05
0.7415999999999999,8.042884712260357e-05
0.7439999999999999,8.263460205555841e-05
0.7464,8.487601791527926e-05
0.7487999999999999,8.715209485332815e-05
0.7512,8.946150407366356e-05
0.7535999999999999,9.180256424038338e-05
0.7559999999999999,9.41732233682377e-05
0.7584,9.657104603016882e-05
0.7607999999999999,9.899320534971963e-05
0.7631999999999999,0.00010143647896500848
0.7656,0.00010389724798696629
0.7679999999999999,0.00010637149794430144
0.7704,0.00010885482081196153
0.7727999999999999,0.00011134241743738272
0.7751999999999999,0.00011382909997524154
0.7776,0.00011630929426590414
0.7799999999999999,0.00011877704239305913
0.7824,0.00012122600588170365
0.7847999999999999,0.00012364947011220113
0.7871999999999999,0.00012604035051429037
0.7896,0.0001283912009758166
0.7919999999999999,0.00013069422468783045
0.7943999999999999,0.00013294128740049685
0.7968,0.00013512393283786174
0.7991999999999999,0.00013723339986163074
0.8016,0.00013926064091291445
0.8039999999999999,0.00014119634130116879
0.8063999999999999,0.00014303093903376556
0.8088,0.00014475464505660484
0.8111999999999999,0.00014635746397167654
0.8135999999999999,0.00014782921548509172
0.816,0.00014915955700264632
0.8183999999999999,0.00015033800792327412
0.8208,0.00015135397628312372
0.8231999999999999,0.00015219678846610133
0.8255999999999999,0.00015285572270873658
0.828,0.00015332004706604253
0.8303999999999999,0.0001535790623501046
0.8327999999999999,0.00015362215029271866
0.8351999999999999,0.00015343882682295712
0.8375999999999999,0.0001530187999141754
0.84,0.00015235203098692773
0.8423999999999999,0.00015142879840338082
0.8447999999999999,0.00015023976120558002
0.8472,0.0001487760209732522
0.8495999999999999,0.00014702917953024258
0.852,0.00014499139022292878
0.8543999999999999,0.00014265540062537968
0.8567999999999999,0.00014001458478602775
0.8592,0.00013706296350364725
0.8615999999999999,0.00013379521158693114
0.8639999999999999,0.00013020665158691334
0.8664,0.00012629323406054924
0.8687999999999999,0.00012205150498523126
0.8712,0.00011747856145009193
0.8735999999999999,0.00011257199715439622
0.8759999999999999,0.00010732983950903732
0.8784,0.00010175048024604242
0.8807999999999999,9.583260139939243e-05
0.8831999999999999,8.957509835893206e-05
0.8855999999999999,8.297700146871767e-05
0.8879999999999999,7.603739740067398e-05
0.8904,6.87553513412541e-05
0.8927999999999999,6.112983092202619e-05
0.8951999999999999,5.315963282116633e-05
0.8976,4.484331305131602e-05
0.8999999999999999,3.617912209372946e-05
0.9023999999999999,2.7164946192158715e-05
0.9047999999999999,1.7798256229890402e-05
0.9071999999999999,8.076065640017122e-06
0.9096,-2.005101278035051e-06
0.9119999999999999,-1.2449229443119994e-05
0.9143999999999999,-2.3260820546866335e-05
0.9168,-3.444488745353578e-05
0.9191999999999999,-4.600693513674309e-05
0.9216,-5.79529281312452e-05
0.9239999999999999,-7.028924470821572e-05
0.9263999999999999,-8.302261813531898e-05
0.9288,-9.616006544535962e-05
0.9311999999999999,-0.00010970880410714559
0.9335999999999999,-0.00012367615687760807
0.9359999999999999,-0.00013806944493581375
0.9383999999999999,-0.00015289586919758582
0.9408,-0.00016816237953457818
0.9431999999999999,-0.00018387553153832706
0.9455999999999999,-0.00020004133054301373
0.948,-0.0002166650629059246
0.9503999999999999,-0.00023375111507535886
0.9527999999999999,-0.00025130278175086355
0.9551999999999999,-0.0002693220654140181
0.9575999999999999,-0.000287809470589796
0.96,-0.0003067637972569026
0.9623999999999999,-0.0003261819387137614
0.9647999999999999,-0.00034605868977734776
0.9672,-0.00036638657133897647
0.9695999999999999,-0.0003871556769715465
0.9719999999999999,-0.00040835354649989376
0.9743999999999999,-0.0004299650702960336
0.9767999999999999,-0.0004519724266856843
0.9792,-0.00047435505341023227
0.9815999999999999,-0.0004970896527369748
0.9839999999999999,-0.0005201502286701157
0.9863999999999999,-0.0005435081538619933
0.9887999999999999,-0.0005671322632768433
0.9911999999999999,-0.000590988971388638
0.9935999999999999,-0.0006150424096288198
0.9959999999999999,-0.0006392545808522977
0.9984,-0.0006635855276690591
1.0008,-0.0006879935115277203
1.0031999999999999,-0.0007124351994033971
1.0055999999999998,-0.0007368658548411366
1.008,-0.0007612395299794136
1.0104,-0.0007855092550811745
1.0128,-0.0008096272220872534
1.0151999999999999,-0.0008335449588122957
1.0175999999999998,-0.0008572134906358652
1.02,-0.0008805834868862307
1.0224,-0.0009036053895449739
1.0248,-0.0009262295223869838
1.0272,-0.0009484061791881509
1.0295999999999998,-0.0009700856901638844
1.0319999999999998,-0.0009912184663329173
1.0344,-0.0010117550220303776
1.0368,-0.0010316459763253496
1.0392,-0.001050842034651652
1.0415999999999999,-0.0010692939525654961
1.0439999999999998,-0.0010869524842335152
1.0464,-0.001103768319051801
1.0488,-0.0011196920106980339
1.0512,-0.0011346739038793068
1.0535999999999999,-0.0011486640649755867
1.0559999999999998,-0.001161612223566862
1.0584,-0.0011734677323318593
1.0608,-0.0011841795528725531
1.0632,-0.0011936962745348328
1.0655999999999999,-0.0012019661721850042
1.0679999999999998,-0.001208937307147651
1.0703999999999998,-0.0012145576731620172
1.0728,-0.0012187753863932658
1.0752,-0.001221538915430137
1.0776,-0.0012227973440693833
1.0799999999999998,-0.001222500656841062
1.0823999999999998,-0.0012206000350193683
1.0848,-0.00121704814964895
1.0872,-0.0012117994382206292
1.0896,-0.001204810353271306
1.0919999999999999,-0.0011960395744234928
1.0943999999999998,-0.001185448180056689
1.0968,-0.0011729997805147011
1.0992,-0.001158660620872196
1.1016,-0.0011423996670305503
1.1039999999999999,-0.0011241886934646817
1.1063999999999998,-0.0011040023935687906
1.1088,-0.0010818185337329639
1.1112,-0.0010576181698197006
1.1136,-0.0010313859397332872
1.1159999999999999,-0.0010031104387504103
1.1183999999999998,-0.0009727846759183991
1.1207999999999998,-0.0009404066009948262
1.1232,-0.0009059796829946431
1.1256,-0.0008695135142614043
1.128,-0.0008310244087603652
1.1303999999999998,-0.0007905359604743295
1.1327999999999998,-0.0007480795276016253
1.1352,-0.0007036946107143444
1.1376,-0.0006574290979276831
1.14,-0.0006093393570717803
1.1423999999999999,-0.0005594901633214936
1.1447999999999998,-0.0005079544600952266
1.1472,-0.00045481296058089366
1.1496,-0.0004001536062548849
1.152,-0.0003440709065109688
1.1543999999999999,-0.00028666518936917086
1.1567999999999998,-0.000228041796683872
1.1592,-0.000168310258013373
1.1616,-0.00010758347530134554
1.164,-4.597694598065119e-05
1.1663999999999999,1.639195446102484e-05
1.1687999999999998,7.940461730176817e-05
1.1711999999999998,0.00014294176799001612
1.1736,0.00020688395924995954
1.176,0.0002711119996793834
1.1784,0.0003355073324258517
1.1807999999999998,0.00039995238105917436
1.1831999999999998,0.00046433087994232457
1.1856,0.0005285282044322266
1.188,0.0005924317125338589
1.1904,0.0006559311047454498
1.1927999999999999,0.0007189188033673079
1.1951999999999998,0.0007812903470689299
1.1976,0.0008429447914995856
1.2,0.0009037851025771865
1.2024,0.0009637185261149896
1.2047999999999999,0.0010226569159119698
1.2071999999999998,0.0010805170025695603
1.2095999999999998,0.0011372205872768183
1.212,0.0011926946487001656
1.2144,0.0012468713568276149
1.2167999999999999,0.0012996879948392124
1.2191999999999998,0.0013510867982490043
1.2215999999999998,0.0014010147289139337
1.224,0.0014494232091097968
1.2264,0.001496267846778583
1.2288,0.0015415081863942024
1.2311999999999999,0.0015851075200347706
1.2335999999999998,0.0016270327898657148
1.236,0.0016672546063842232
1.2384,0.0017057473968964492
1.2408,0.0017424896866035174
1.2431999999999999,0.0017774645014603668
1.2455999999999998,0.0018106598689310565
1.248,0.0018420693812392596
1.2504,0.0018716927769538562
1.2528,0.001899536491762187
1.2551999999999999,0.0019256141286960564
1.2575999999999998,0.0019499468020357138
1.2599999999999998,0.00197256331726059
1.2624,0.0019935001608959763
1.2648,0.0020128012876988073
1.2671999999999999,0.002030517706909274
1.2695999999999998,0.002046706882832545
1.2719999999999998,0.0020614319765677757
1.2744,0.002074760964372321
1.2768,0.0020867656734700367
1.2792,0.002097520778044778
1.2815999999999999,0.002107102797019989
1.2839999999999998,0.0021155891315679924
1.2864,0.002123057174781115
1.2888,0.002129583519236193
1.2912,0.002135243280892161
1.2935999999999999,0.0021401095503842528
1.2959999999999998,0.002144252975737771
1.2983999999999998,0.0021477414741716177
1.3008,0.002150640065292807
1.3032,0.0021530108138367063
1.3055999999999999,0.002154912867348864
1.3079999999999998,0.002156402572893376
1.3103999999999998,0.0021575336569468404
1.3128,0.0021583574538953216
1.3152,0.002158923170672689
1.3175999999999999,0.002159278177656033
1.3199999999999998,0.0021594683185289804
