# Strata Output: Acceleration Time Series
# Project:TST site
# Time (s),S-1-M-NORTHR\VAS090.AT2,
0,9.325587325092493e-05
0.02,0.0001520333965751985
0.04,0.00020607957392572678
0.06,0.0002552475561431164
0.08,0.0002994453616140691
0.1,0.0003386177029235421
0.12,0.00037273416964411955
0.14,0.00040178490337654645
0.16,0.0004257825166713113
0.18,0.00044476810544806137
0.2,0.0004588192130675465
0.22,0.0004680578479282604
0.24,0.0004726566897964946
0.26,0.00047284161983696793
0.28,0.000468889102761587
0.3,0.0004611181523146634
0.32,0.0004498781079922413
0.34,0.00043553459264932676
0.36,0.00041845621829242303
0.38,0.000399003968414362
0.4,0.0003775240394915275
0.42,0.00035434393120366644
0.44,0.0003297709678992666
0.46,0.000304092341435144
0.48,0.0002775759261681953
0.5,0.00025047144542712037
0.52,0.0002230118168987373
0.54,0.0001954146981960314
0.56,0.0001678842547050774
0.58,0.0001406131323675318
0.6,0.00011378451303941354
0.62,8.757411722628907e-05
0.64,6.215196551591288e-05
0.66,3.76836978885203e-05
0.68,1.4331202954408056e-05
0.7000000000000001,-7.74757072087593e-06
0.72,-2.8399565870911622e-05
0.74,-4.7478039029910605e-05
0.76,-6.484415864726304e-05
0.78,-8.03686441477707e-05
0.8,-9.393360473101662e-05
0.8200000000000001,-0.00010543470476820097
0.84,-0.00011478349673093219
0.86,-0.00012191083298683851
0.88,-0.00012677886263022203
0.9,-0.0001294216368277694
0.92,-0.0001300393022780537
0.9400000000000001,-0.00012914185912498634
0.96,-0.00012766498229120816
0.98,-0.00012690282506917663
1,-0.00012812602105346298
1.02,-0.00013196671378140412
1.04,-0.00013791817129524785
1.06,-0.0001443073293399947
1.08,-0.00014879831183976696
1.1,-0.00014918174170916747
1.12,-0.00014423986791533061
1.1400000000000001,-0.0001346941971297133
1.16,-0.00012409031552418587
1.18,-0.00011889530803077463
1.2,-0.00012678417467035732
1.22,-0.00015293733695116208
1.24,-0.00019620455499094104
1.26,-0.0002484616404341079
1.28,-0.0002985430619951222
1.3,-0.00033760923080601053
1.32,-0.00036152182295542474
1.34,-0.0003695490766346597
1.36,-0.00036240119413487255
1.3800000000000001,-0.0003425880120434802
1.4000000000000001,-0.0003168954106962578
1.42,-0.0002973722332198023
1.44,-0.00029765995008939055
1.46,-0.0003253970303459076
1.48,-0.0003751987289736109
1.5,-0.0004283074452187852
1.52,-0.0004611343086434903
1.54,-0.00045716446746200387
1.56,-0.00041428076489536737
1.58,-0.0003446559286488241
1.6,-0.00027026886167679024
1.62,-0.00021795684112186777
1.6400000000000001,-0.00021420296544699655
1.6600000000000001,-0.0002779050750385972
1.68,-0.00041226446179806113
1.7,-0.0006017535984858591
1.72,-0.0008196959996271173
1.74,-0.0010426154108512716
1.76,-0.0012599701154430696
1.78,-0.0014713142512377255
1.8,-0.0016729227808838956
1.82,-0.001846126001260266
1.84,-0.001959628474987546
1.86,-0.001983983894851676
1.8800000000000001,-0.0019057346374494564
1.9000000000000001,-0.0017326825662736139
1.92,-0.001490097526343496
1.94,-0.0012117329884573356
1.96,-0.000930054821877511
1.98,-0.0006675064658306236
2,-0.0004293552631481883
2.02,-0.00020294539297306024
2.04,3.342797998923216e-05
2.06,0.0002985015431585097
2.08,0.0006012762064311992
2.1,0.0009432860748455876
2.12,0.0013289747247535015
2.14,0.0017752885575540642
2.16,0.0023105495017009983
2.18,0.002962570026936789
2.2,0.003742717555952386
2.22,0.0046331475702588824
2.24,0.005584496586668683
2.2600000000000002,0.006528730119458801
2.2800000000000002,0.007402952891618439
2.3000000000000003,0.008170448264172302
2.32,0.008824333598437054
2.34,0.009369769858738622
2.36,0.009797037416381
2.38,0.01006780480059172
2.4,0.010128211167905255
2.42,0.009939853694480966
2.44,0.009505285271610537
2.46,0.008870202288659557
2.48,0.008102159875727903
2.5,0.007261683999434961
2.52,0.006384703167428703
2.54,0.00548155255211606
2.56,0.004541782457152004
2.58,0.0035348024497080495
2.6,0.0024125282651918712
2.62,0.0011284558907424392
2.64,-0.0003278044320950401
2.66,-0.001902280222575328
2.68,-0.0034759846471012
2.7,-0.0048939802951235845
2.72,-0.00601134688045738
2.74,-0.006741948140111032
2.7600000000000002,-0.007091275997671605
2.7800000000000002,-0.0071462182298132025
2.8000000000000003,-0.007016588609581417
2.82,-0.006773213365187753
2.84,-0.006441508243711526
2.86,-0.006052755557995669
2.88,-0.00569077810490964
2.9,-0.005481651352333816
2.92,-0.005536224675379666
2.94,-0.00589110174024056
2.96,-0.006481030313985893
2.98,-0.007149164837545286
3,-0.007695620425818897
3.02,-0.007962636539981985
3.04,-0.007919398770613614
3.06,-0.007676939981711396
3.08,-0.007408519252416259
3.1,-0.007241017279898089
3.12,-0.007202114490681514
3.14,-0.007237036884583774
3.16,-0.00724852748294731
3.18,-0.007126446841774682
3.2,-0.0067750284032599825
3.22,-0.006156146189943915
3.24,-0.00533874323977438
3.2600000000000002,-0.0045132428896396916
3.2800000000000002,-0.0039383658405192715
3.3000000000000003,-0.00383833174603461
3.3200000000000003,-0.0043095424144872704
3.34,-0.005284897519227112
3.36,-0.006560472439140069
3.38,-0.007865464468580443
3.4,-0.008956489589766801
3.42,-0.00970542062229055
3.44,-0.010134705712150832
3.46,-0.010377544334765492
3.48,-0.010592529629478339
3.5,-0.010879822955029953
3.52,-0.011219061013547605
3.54,-0.011442693047298842
3.56,-0.011278251918858145
3.58,-0.010469365353757285
3.6,-0.008914981045848376
3.62,-0.006734475681756444
3.64,-0.004213939547612734
3.66,-0.001665886341451232
3.68,0.0007131406266706969
3.7,0.0028968507121782056
3.72,0.004965501555513335
3.74,0.006990987420308178
3.7600000000000002,0.008969604484757289
3.7800000000000002,0.010831139282994996
3.8000000000000003,0.012476466749155616
3.8200000000000003,0.01379958868573251
3.84,0.014697585721025674
3.86,0.015089582278894783
3.88,0.014948042822986963
3.9,0.014322819483266691
3.92,0.013323718134315762
3.94,0.012048119683990832
3.96,0.010508214669796758
3.98,0.008639678742261002
4,0.006394154817249273
4.0200000000000005,0.003829280623568779
4.04,0.0011177353327942463
4.0600000000000005,-0.0015230716148417608
4.08,-0.003914432918922671
4.1,-0.005953436067941607
4.12,-0.007594756406907342
4.14,-0.008805131250837794
4.16,-0.009532465933201303
4.18,-0.009722204356300748
4.2,-0.00936419844706638
4.22,-0.008511469517652375
4.24,-0.007252624896158531
4.26,-0.005683744701563323
4.28,-0.0039062630830547585
4.3,-0.0020245952193938166
4.32,-0.0001216809277509645
4.34,0.0017774832292798888
4.36,0.0037325814594162485
4.38,0.005884227637043202
4.4,0.008405577091057412
4.42,0.011417101949435758
4.44,0.014901260186855059
4.46,0.01866427652547043
4.48,0.02237118740921681
4.5,0.02563991865225209
4.5200000000000005,0.028153389890076458
4.54,0.02974630728748426
4.5600000000000005,0.030427815671274692
4.58,0.030324385462411004
4.6000000000000005,0.029584992315459382
4.62,0.028330162149970844
4.64,0.026677903144495932
4.66,0.02478643213033974
4.68,0.02284188037189606
4.7,0.020997301335600158
4.72,0.019317013806059175
4.74,0.01775603739696467
4.76,0.01617884660378647
4.78,0.014413022056743136
4.8,0.012310326186440814
4.82,0.009779100140149315
4.84,0.00678067874656735
4.86,0.0033118181853143626
4.88,-0.0006016234188123952
4.9,-0.0048926115911772355
4.92,-0.00943242025983415
4.94,-0.014014047262556372
4.96,-0.01835592403723192
4.98,-0.02213638422090093
5,-0.02504307039238182
5.0200000000000005,-0.026829386593511386
5.04,-0.027395277061398354
5.0600000000000005,-0.02686633522368771
5.08,-0.02558434715951279
5.1000000000000005,-0.023965320913037293
5.12,-0.02230591382521698
5.14,-0.020671071091706832
5.16,-0.018908423385620567
5.18,-0.016738408886019934
5.2,-0.01386835799494134
5.22,-0.010108404135274536
5.24,-0.0054617809504220825
5.26,-0.00015381271556109404
5.28,0.005409151955911126
5.3,0.010724878433408159
5.32,0.015297969523098948
5.34,0.018740580317003624
5.36,0.020827703931092945
5.38,0.02145771752981469
5.4,0.020543822902363222
5.42,0.0179534602111864
5.44,0.013594538058630541
5.46,0.007617113390364004
5.48,0.0005745667047933632
5.5,-0.006620073863531039
5.5200000000000005,-0.012976802897632833
5.54,-0.01781324284130874
5.5600000000000005,-0.021024509514139696
5.58,-0.023082104080029038
5.6000000000000005,-0.02476559506502285
5.62,-0.026794905030463372
5.64,-0.02958557698425864
5.66,-0.033249053607206244
5.68,-0.037767922666865524
5.7,-0.04312863061322661
5.72,-0.04924008237311818
5.74,-0.05570296479606361
5.76,-0.06167007462124824
5.78,-0.06595861437036031
5.8,-0.06737170473789449
5.82,-0.06505841110615283
5.84,-0.05873814556643707
5.86,-0.04870975353622019
5.88,-0.035694361443093715
5.9,-0.02064844297851994
5.92,-0.0046839172262056
5.94,0.01087276780069907
5.96,0.02443185743940766
5.98,0.03434655741611723
6,0.039427588320099974
6.0200000000000005,0.03947899755950929
6.04,0.035489620943957384
6.0600000000000005,0.02937196190442328
6.08,0.023405284212609394
6.1000000000000005,0.01960577980354652
6.12,0.019190033548528933
6.140000000000001,0.022261379613283415
6.16,0.02784967377952081
6.18,0.03433254381938377
6.2,0.04004233887800661
6.22,0.0437581280909317
6.24,0.04493405271437783
6.26,0.04373753257551278
6.28,0.04102905463028338
6.3,0.03829420496130985
6.32,0.03738050264781894
6.34,0.03989494384490528
6.36,0.0464245574746327
6.38,0.056111383953374006
6.4,0.0669904124260407
6.42,0.07685279543837399
6.44,0.08398120287986886
6.46,0.08740142034671147
6.48,0.08682033827076259
6.5,0.08253018781939099
6.5200000000000005,0.07531277444176926
6.54,0.06623237156982349
6.5600000000000005,0.056331493534338126
6.58,0.046395134355645774
6.6000000000000005,0.036858508282407804
6.62,0.02773026015515708
6.640000000000001,0.01846776972090791
6.66,0.008019804965824546
6.68,-0.004779820483297808
6.7,-0.020675609588928803
6.72,-0.03967820765261945
6.74,-0.06106927983201581
6.76,-0.08357402999198969
6.78,-0.10559347984245306
6.8,-0.1254734228662066
6.82,-0.1417653696226856
6.84,-0.15339965297635924
6.86,-0.15971856579535293
6.88,-0.16040445233349027
6.9,-0.15542322683985804
6.92,-0.14510035951106345
6.94,-0.13031675933175282
6.96,-0.11261592537972945
6.98,-0.09395381395561121
7,-0.0760856263802614
7.0200000000000005,-0.05996201054468719
7.04,-0.04554758043188991
7.0600000000000005,-0.032109239854314194
7.08,-0.01868244391580659
7.1000000000000005,-0.004466368625733175
7.12,0.010872020958926757
7.140000000000001,0.026979725375417766
7.16,0.04280754485873025
7.18,0.056892672866097393
7.2,0.06778704988373742
7.22,0.0743481328029212
7.24,0.07578100111985207
7.26,0.0716204915359308
7.28,0.0618880635437059
7.3,0.047398769684698965
7.32,0.029955840920068567
7.34,0.012188757264375889
7.36,-0.0029830367110008442
7.38,-0.013047313906838973
7.4,-0.016511216480720632
7.42,-0.013288292809667824
7.44,-0.004736295891819165
7.46,0.006773324340211269
7.48,0.018643804937815124
7.5,0.028804140136115083
7.5200000000000005,0.036059985624619977
7.54,0.04001910262249521
7.5600000000000005,0.040848036398326217
7.58,0.039091631734909725
7.6000000000000005,0.03559070676051109
7.62,0.03145595828461166
7.640000000000001,0.0280592947821446
7.66,0.02689620956676972
7.68,0.029156137278499052
7.7,0.0351583019875138
7.72,0.044119038315106635
7.74,0.05451902144580088
7.76,0.06481986603503853
7.78,0.07402879436545316
7.8,0.08181688806091234
7.82,0.08828355928863447
7.84,0.09364603952613806
7.86,0.09800663985624572
7.88,0.10120914912928669
7.9,0.10281535224826568
7.92,0.10221204735907698
7.94,0.0987552980883781
7.96,0.0918903214167927
7.98,0.08131269432481879
8,0.06719518617957593
8.02,0.05034139779973018
8.040000000000001,0.03212538975140984
8.06,0.014265797741357443
8.08,-0.0013876808362560241
8.1,-0.013000140502458835
8.120000000000001,-0.018990464540145805
8.14,-0.01849667558954089
8.16,-0.01189524589182926
8.18,-0.0009701155245286809
8.2,0.011512144547158968
8.22,0.02264859698618979
8.24,0.03025555505371606
8.26,0.03340600491308561
8.28,0.03251486706249618
8.3,0.028978134141529163
8.32,0.024495991217402063
8.34,0.020366762448670795
8.36,0.01709603134976888
8.38,0.01444730846948803
8.4,0.01171666778781442
8.42,0.007924218119909043
8.44,0.0018648775497021482
8.46,-0.007781925773465516
8.48,-0.022125437487169924
8.5,-0.04164400217397707
8.52,-0.06600062609570738
8.540000000000001,-0.09428461680398982
8.56,-0.12549410138891975
8.58,-0.1588519718161723
8.6,-0.1937067393026234
8.620000000000001,-0.22914574875100288
8.64,-0.26368706467397734
8.66,-0.29531086463672224
8.68,-0.32178441474977043
8.700000000000001,-0.341044114702575
8.72,-0.35145554799727685
8.74,-0.3519417534148308
8.76,-0.34205929898841037
8.78,-0.32204176905365034
8.8,-0.29271809626221673
8.82,-0.2552523887317713
8.84,-0.21087027394201502
8.86,-0.16081476676322357
8.88,-0.10652117156938126
8.9,-0.049754909551212444
8.92,0.007449111830723846
8.94,0.06296365716143279
8.96,0.11472030473825585
8.98,0.16081265023444025
9,0.1996287289767963
9.02,0.23005895006135196
9.040000000000001,0.2517054139308536
9.06,0.26493307769420493
9.08,0.2706720986846793
9.1,0.2700660316969245
9.120000000000001,0.26415725608626744
9.14,0.25370863941595856
9.16,0.2391330204064953
9.18,0.22050795454114644
9.200000000000001,0.19773868049648147
9.22,0.17091684424670106
9.24,0.14074613248338597
9.26,0.10874025606271487
9.28,0.07698446328771648
9.3,0.04756766386325818
9.32,0.022004611049288043
9.34,0.000865810668216718
9.36,-0.016362938565918608
9.38,-0.0311722681351099
9.4,-0.04556978434679618
9.42,-0.0612876393500825
9.44,-0.07897817364310306
9.46,-0.097866276615347
9.48,-0.11609055276214267
9.5,-0.13151228796900424
9.52,-0.14250369529458198
9.540000000000001,-0.14832440642872266
9.56,-0.14899820277593534
9.58,-0.144908088145812
9.6,-0.1364655501507905
9.620000000000001,-0.12404801144773298
9.64,-0.10810062275415387
9.66,-0.08921600712880644
9.68,-0.0681657669633761
9.700000000000001,-0.04595924467492788
9.72,-0.02391005653768834
9.74,-0.00357547005970153
9.76,0.013518225634796753
9.78,0.02626762954346243
9.8,0.03427053459194547
9.82,0.03784127097095838
9.84,0.03782564891826622
9.86,0.03537100631936133
9.88,0.03172639349235328
9.9,0.028056149413331514
9.92,0.025282311418531336
9.94,0.024068547048810198
9.96,0.02502182174239911
9.98,0.028955808560808
10,0.03689306594461118
10.02,0.049683344043742264
10.040000000000001,0.06752075366874899
10.06,0.08975583534349806
10.08,0.11509872363795454
10.1,0.14198741495015146
10.120000000000001,0.16887364790777154
10.14,0.19437012952420268
10.16,0.2173336770584993
10.18,0.23694095720619388
10.200000000000001,0.25275313035564817
10.22,0.26471961111626924
10.24,0.2730423957956391
10.26,0.2778736042324861
10.28,0.2789666002965874
10.3,0.2755173186660238
10.32,0.2663799242330978
10.34,0.250618598767432
10.36,0.22809489757151988
10.38,0.199696120570162
10.4,0.16702063655977004
10.42,0.13171029346275223
10.44,0.09483329076836583
10.46,0.056624109320370694
10.48,0.016633670149432768
10.5,-0.025855931208220637
10.52,-0.07136073537555611
10.540000000000001,-0.11982342213567256
10.56,-0.17039894557756585
10.58,-0.2214011574904282
10.6,-0.2704438303899838
10.620000000000001,-0.31482677060530034
10.64,-0.3520861822993461
10.66,-0.380464796667408
10.68,-0.39910184140430727
10.700000000000001,-0.40795486194507186
10.72,-0.4076086392243397
10.74,-0.39909936597941176
10.76,-0.38376020428878205
10.78,-0.3630122457101355
10.8,-0.3380755791598719
10.82,-0.3097127114384863
10.84,-0.2781767246793308
10.86,-0.243414593034056
10.88,-0.20537208583402872
10.9,-0.16419391179197296
10.92,-0.12028280554798422
10.94,-0.07434267968045764
10.96,-0.027463898128990284
10.98,0.018859569208281926
11,0.06287840305952178
11.02,0.10282270172246202
11.040000000000001,0.1370943122476504
11.06,0.16442769104437274
11.08,0.18411156806270898
11.1,0.19625133376294576
11.120000000000001,0.20189658332075572
11.14,0.20285508820104603
11.16,0.20118911048069443
11.18,0.19861015812246158
11.200000000000001,0.19607308284851888
11.22,0.19373249337468512
11.24,0.19118832850733702
11.26,0.18782892028700368
11.28,0.1831273292459259
11.3,0.17682671373476913
11.32,0.16897357033434204
11.34,0.15978959992631644
11.36,0.14947483407487108
11.38,0.13810573303018453
11.4,0.1257069167718352
11.42,0.11240778446550116
11.44,0.09852766270176627
11.46,0.0845059863911872
11.48,0.07071572441292226
11.5,0.057283748057070184
11.52,0.04405300948502327
11.540000000000001,0.030752459550343395
11.56,0.017292654492979932
11.58,0.003957178225632483
11.6,-0.008708631099879406
11.620000000000001,-0.02025451907020973
11.64,-0.030632141206415137
11.66,-0.04020715128610689
11.68,-0.04950870316018535
11.700000000000001,-0.058940311076642236
11.72,-0.06863775946449925
11.74,-0.07849991467140618
11.76,-0.08829372835592877
11.78,-0.09773469161727588
11.8,-0.10654121517510885
11.82,-0.11451332334237402
11.84,-0.12160706121278306
11.86,-0.12790741785685614
11.88,-0.13349847569282744
11.9,-0.1383449563967091
11.92,-0.1422472728786057
11.94,-0.14483496544541266
11.96,-0.14558061188264168
11.98,-0.14387483724592137
12,-0.13919097024085303
12.02,-0.13129934556810424
12.040000000000001,-0.12043512747183233
12.06,-0.10732684698963296
12.08,-0.09306107463782158
12.1,-0.07883124354416114
12.120000000000001,-0.06564438129100017
12.14,-0.05407437168432589
12.16,-0.044162626563065584
12.18,-0.0355116530512513
12.200000000000001,-0.027506408357448792
12.22,-0.01954399355930093
12.24,-0.011195525645605182
12.26,-0.0022774654107206404
12.280000000000001,0.007185891761373144
12.3,0.017102220799423543
12.32,0.02745964913691492
12.34,0.038363226061998
12.36,0.049952752770675825
12.38,0.06230824050874686
12.4,0.07542429562671567
12.42,0.08923322271010255
12.44,0.10360130232738574
12.46,0.11825599775650283
12.48,0.13268069423749354
12.5,0.14606981134276667
12.52,0.15742864971204146
12.540000000000001,0.16581299886375073
12.56,0.17058469441344976
12.58,0.17153494002213904
12.6,0.1688377487230139
12.620000000000001,0.1629249154245811
12.64,0.15439899558069034
12.66,0.1440223281919793
12.68,0.13271341474364706
12.700000000000001,0.12142415855406856
12.72,0.11084393724548836
12.74,0.10108466227083683
12.76,0.09163231582142572
12.780000000000001,0.081664415681312
12.8,0.07048539638046476
12.82,0.057744280097318426
12.84,0.0433670709373989
12.86,0.027418637192023247
12.88,0.01009905313937853
12.9,-0.008144557450315185
12.92,-0.026568563979436282
12.94,-0.044269812455652445
12.96,-0.060451752189959615
12.98,-0.07465374452128819
13,-0.08681942290494245
13.02,-0.09719455274297603
13.040000000000001,-0.10615243393432983
13.06,-0.11407495772704347
13.08,-0.12132435494359563
13.1,-0.12821818814403646
13.120000000000001,-0.13492734009852553
13.14,-0.14133430252552592
13.16,-0.14694621691473994
13.18,-0.15092480407623626
13.200000000000001,-0.1522653997633471
13.22,-0.15011141509610587
13.24,-0.14409744998376622
13.26,-0.13455987587078955
13.280000000000001,-0.1224944165269276
13.3,-0.10925158862367207
13.32,-0.0960966364143109
13.34,-0.08383408750112543
13.36,-0.0726554473734471
13.38,-0.0622541338694597
13.4,-0.052117987292794536
13.42,-0.04181677388400031
13.44,-0.03113152753750173
13.46,-0.020013300400101283
13.48,-0.008481313164881132
13.5,0.0034162890307408967
13.52,0.015532226422099202
13.540000000000001,0.02750386521365185
13.56,0.03872388099433286
13.58,0.04848141860315954
13.6,0.05621092398366947
13.620000000000001,0.0616790906938892
13.64,0.06498928249775687
13.66,0.06644302560405752
13.68,0.06639246976261408
13.700000000000001,0.06516419281680402
13.72,0.06304280407504334
13.74,0.060277043937173716
13.76,0.05709150847706468
13.780000000000001,0.05369954122951542
13.8,0.050306030609969896
13.82,0.0470905887832707
13.84,0.04418573164102304
13.86,0.04167128710696101
13.88,0.03957974139459177
13.9,0.03789920321519155
13.92,0.03657990729384938
13.94,0.03554798657890868
13.96,0.03471128370544918
13.98,0.033949447405002955
14,0.03310681385015279
14.02,0.032011457262317224
14.040000000000001,0.030519220655718864
14.06,0.0285588062150243
14.08,0.026160819316824586
14.1,0.023474832885798203
14.120000000000001,0.020775824043692107
14.14,0.018432606212645385
14.16,0.016809050661327714
14.18,0.016127604845217
14.200000000000001,0.01637785720698736
14.22,0.017323491448781835
