# Strata Output: Acceleration Time Series
# Project:TST site
# Time (s),S-1-M-ITALY\B-BAG270.AT2,
0,-9.099413555124469e-06
0.0029,-9.161106497219628e-06
0.0058,-9.225791811289998e-06
0.0087,-9.293545285445736e-06
0.0116,-9.364444413996426e-06
0.014499999999999999,-9.438568453175587e-06
0.0174,-9.515998478783808e-06
0.0203,-9.5968174460367e-06
0.0232,-9.681110251419938e-06
0.026099999999999998,-9.768963796938214e-06
0.028999999999999998,-9.860467056643608e-06
0.0319,-9.955711145570046e-06
0.0348,-1.0054789391316645e-05
0.0377,-1.0157797408030214e-05
0.0406,-1.0264833173442585e-05
0.0435,-1.0375997108471865e-05
0.0464,-1.0491392159984365e-05
0.0493,-1.061112388651422e-05
0.052199999999999996,-1.0735300547344912e-05
0.055099999999999996,-1.0864033194772273e-05
0.057999999999999996,-1.0997435770027752e-05
0.060899999999999996,-1.1135625202667666e-05
0.0638,-1.1278721513945366e-05
0.0667,-1.14268479239096e-05
0.0696,-1.1580130962817128e-05
0.0725,-1.1738700586727749e-05
0.0754,-1.1902690297587075e-05
0.0783,-1.2072237267970486e-05
0.0812,-1.2247482470791883e-05
0.0841,-1.2428570813886994e-05
0.087,-1.2615651280102711e-05
0.0899,-1.2808877072805696e-05
0.0928,-1.3008405767139852e-05
0.0957,-1.3214399467431672e-05
0.0986,-1.3427024970788528e-05
0.10149999999999999,-1.3646453937243833e-05
0.10439999999999999,-1.3872863066931279e-05
0.10729999999999999,-1.4106434284191039e-05
0.11019999999999999,-1.4347354929471825e-05
0.11309999999999999,-1.4595817958789383e-05
0.11599999999999999,-1.4852022151600154e-05
0.11889999999999999,-1.511617232711087e-05
0.12179999999999999,-1.53884795696521e-05
0.12469999999999999,-1.5669161463358578e-05
0.1276,-1.595844233678778e-05
0.1305,-1.6256553517644952e-05
0.1334,-1.656373359848727e-05
0.13629999999999998,-1.6880228713481596e-05
0.1392,-1.7206292827154422e-05
0.1421,-1.7542188035411496e-05
0.145,-1.788818487959735e-05
0.14789999999999998,-1.8244562674028454e-05
0.1508,-1.8611609847936692e-05
0.1537,-1.898962430218923e-05
0.1566,-1.937891378189325e-05
0.15949999999999998,-1.9779796265192567e-05
0.1624,-2.0192600369588444e-05
0.1653,-2.0617665776207855e-05
0.1682,-2.1055343673209222e-05
0.17109999999999997,-2.1505997219031626e-05
0.174,-2.1970002026932578e-05
0.1769,-2.2447746671232368e-05
0.1798,-2.293963321709514e-05
0.18269999999999997,-2.3446077774439994e-05
0.1856,-2.3967511077749727e-05
0.1885,-2.4504379092648147e-05
0.1914,-2.5057143651085538e-05
0.19429999999999997,-2.562628311629287e-05
0.1972,-2.6212293079344402e-05
0.2001,-2.6815687088734663e-05
0.20299999999999999,-2.7436997415105274e-05
0.20589999999999997,-2.8076775852576182e-05
0.20879999999999999,-2.8735594559158456e-05
0.2117,-2.941404693791577e-05
0.21459999999999999,-3.0112748561415865e-05
0.21749999999999997,-3.08323381417515e-05
0.22039999999999998,-3.157347854872774e-05
0.2233,-3.233685787878985e-05
0.22619999999999998,-3.312319057769907e-05
0.22909999999999997,-3.393321861985745e-05
0.23199999999999998,-3.4767712747682795e-05
0.2349,-3.562747377428451e-05
0.23779999999999998,-3.651333395323768e-05
0.24069999999999997,-3.7426158419262236e-05
0.24359999999999998,-3.83668467041744e-05
0.2465,-3.9336334332114115e-05
0.24939999999999998,-4.033559449925866e-05
0.25229999999999997,-4.1365639842655165e-05
0.2552,-4.24275243038297e-05
0.2581,-4.352234509268159e-05
0.261,-4.465124475790451e-05
0.26389999999999997,-4.5815413370439564e-05
0.2668,-4.701609082705447e-05
0.2697,-4.825456928118989e-05
0.27259999999999995,-4.9532195709564365e-05
0.27549999999999997,-5.08503746225687e-05
0.2784,-5.221057092815174e-05
0.2813,-5.361431295843711e-05
0.2842,-5.50631956701605e-05
0.28709999999999997,-5.655888402975529e-05
0.29,-5.81031165955405e-05
0.2929,-5.96977093098059e-05
0.29579999999999995,-6.134455951474629e-05
0.29869999999999997,-6.304565020755176e-05
0.3016,-6.480305455044967e-05
0.3045,-6.661894065329186e-05
0.3074,-6.849557664721434e-05
0.31029999999999996,-7.043533606977807e-05
0.3132,-7.24407035831808e-05
0.3161,-7.451428104872665e-05
0.31899999999999995,-7.665879398339266e-05
0.32189999999999996,-7.88770984251882e-05
0.3248,-8.117218823730018e-05
0.3277,-8.354720288256236e-05
0.3306,-8.600543570292982e-05
0.33349999999999996,-8.85503427413665e-05
0.3364,-9.11855521465003e-05
0.3393,-9.391487420395209e-05
0.34219999999999995,-9.674231204198217e-05
0.34509999999999996,-9.967207306318528e-05
0.348,-0.00010270858115815119
0.3509,-0.00010585648976251242
0.3538,-0.00010912069582334767
0.35669999999999996,-0.00011250635474769228
0.3596,-0.0001160188964116323
0.3625,-0.00011966404231608317
0.36539999999999995,-0.00012344782398302986
0.36829999999999996,-0.00012737660269463225
0.3712,-0.00013145709068724647
0.3741,-0.00013569637392293272
0.377,-0.000140101936572514
0.37989999999999996,-0.00014468168735752216
0.3828,-0.00014944398791206883
0.3857,-0.00015439768334216797
0.38859999999999995,-0.00015955213517681343
0.39149999999999996,-0.00016491725692539016
0.3944,-0.0001705035524770151
0.3973,-0.0001763221576017964
0.4002,-0.00018238488484078182
0.40309999999999996,-0.00018870427210127919
0.40599999999999997,-0.00019529363530761788
0.4089,-0.0002021671254948096
0.41179999999999994,-0.00020933979077404594
0.41469999999999996,-0.0002168276436462858
0.41759999999999997,-0.000224647734191849
0.4205,-0.0002328182297234396
0.4234,-0.00024135850155566994
0.42629999999999996,-0.0002502892196188421
0.42919999999999997,-0.0002596324557281523
0.4321,-0.00026941179641425415
0.43499999999999994,-0.0002796524663273803
0.43789999999999996,-0.00029038146334812683
0.44079999999999997,-0.0003016277066735651
0.4437,-0.00031342219930247957
0.4466,-0.0003257982065179614
0.44949999999999996,-0.0003387914521645285
0.45239999999999997,-0.0003524403347424062
0.4553,-0.00036678616559860495
0.45819999999999994,-0.00038187343178636206
0.46109999999999995,-0.0003977500864978044
0.46399999999999997,-0.0004144678703542302
0.4669,-0.00043208266727187965
0.4698,-0.0004506548991158561
0.47269999999999995,-0.00047024996392030935
0.47559999999999997,-0.0004909387230985822
0.4785,-0.0005127980438056471
0.48139999999999994,-0.000535911403457932
0.48429999999999995,-0.0005603695643791734
0.48719999999999997,-0.000586271327638819
0.4901,-0.0006137243764012682
0.493,-0.0006428462205264371
0.49589999999999995,-0.0006737652557741272
0.49879999999999997,-0.0007066219527841147
0.5016999999999999,-0.0007415701930469325
0.5045999999999999,-0.000778778771355638
0.5075,-0.0008184330867392257
0.5104,-0.0008607370466063205
0.5133,-0.0009059152117329176
0.5162,-0.0009542152127261867
0.5191,-0.0010059104715389496
0.522,-0.0010613032642464739
0.5248999999999999,-0.0011207281632255523
0.5277999999999999,-0.0011845558974486298
0.5307,-0.0012531976678154789
0.5336,-0.0013271099487156307
0.5365,-0.0014067997949142193
0.5394,-0.0014928306506380817
0.5423,-0.0015858286197094154
0.5451999999999999,-0.0016864890931704121
0.5480999999999999,-0.0017955835315085727
0.5509999999999999,-0.001913966044592485
0.5539,-0.002042579180214306
0.5568,-0.002182457993629866
0.5597,-0.002334730998794113
0.5626,-0.0025006159853019337
0.5655,-0.002681407952566725
0.5684,-0.0028784556729353323
0.5712999999999999,-0.0030931228765289274
0.5741999999999999,-0.0033267301170244916
0.5771,-0.003580474479940687
0.58,-0.0038553268183581036
0.5829,-0.004151910223693218
0.5858,-0.0044703684961021105
0.5887,-0.004810238387847191
0.5915999999999999,-0.005170342870771452
0.5944999999999999,-0.005548723235384723
0.5973999999999999,-0.00594262473564364
0.6003,-0.0063485440482996735
0.6032,-0.006762338307057545
0.6061,-0.007179386758706724
0.609,-0.007594789004656152
0.6119,-0.008003579636596507
0.6148,-0.008400938363581698
0.6176999999999999,-0.008782377210150443
0.6205999999999999,-0.009143891223838371
0.6234999999999999,-0.00948206523115261
0.6264,-0.009794135309996217
0.6293,-0.010078008725614528
0.6322,-0.010332249361512917
0.6351,-0.010556036907735218
0.6379999999999999,-0.010749107522454296
0.6408999999999999,-0.010911682062455618
0.6437999999999999,-0.011044386157629545
0.6466999999999999,-0.011148165105893153
0.6496,-0.011224196104202831
0.6525,-0.011273800551951598
0.6554,-0.01129835958793366
0.6583,-0.011299236144096628
0.6612,-0.011277706356877627
0.6640999999999999,-0.01123490227375736
0.6669999999999999,-0.011171766811523518
0.6698999999999999,-0.011089021293449094
0.6728,-0.010987145844665206
0.6757,-0.01086637335129574
0.6786,-0.010726698181024013
0.6815,-0.01056790089190676
0.6843999999999999,-0.010389589310771346
0.6872999999999999,-0.010191254539059346
0.6901999999999999,-0.009972337921310442
0.6930999999999999,-0.009732302390604164
0.696,-0.009470699646207377
0.6989,-0.009187224025586629
0.7018,-0.008881745138962704
0.7047,-0.008554314336741094
0.7076,-0.008205144379535654
0.7104999999999999,-0.007834566372542257
0.7133999999999999,-0.00744297204038339
0.7162999999999999,-0.007030751838863307
0.7192,-0.006598239743585196
0.7221,-0.00614567390045226
0.725,-0.005673179239132764
0.7279,-0.005180774471882957
0.7307999999999999,-0.004668402444224147
0.7336999999999999,-0.0041359801420677335
0.7365999999999999,-0.00358346300977673
0.7394999999999999,-0.0030109174922301404
0.7424,-0.0024185955977103473
0.7453,-0.0018070055052871613
0.7482,-0.0011769726718547696
0.7511,-0.0005296865739213093
0.754,0.0001332707061179972
0.7568999999999999,0.0008099162757175453
0.7597999999999999,0.0014978788849558877
0.7626999999999999,0.0021944303190180128
0.7656,0.0028965324829778164
0.7685,0.00360089631961065
0.7714,0.004304049186002109
0.7743,0.005002408657777112
0.7771999999999999,0.005692362310217481
0.7800999999999999,0.006370354061989591
0.7829999999999999,0.007032977542164324
0.7858999999999999,0.007677075487427924
0.7888,0.008299841786252597
0.7917,0.008898920280273686
0.7946,0.009472492734414644
0.7975,0.010019348155822389
0.8004,0.010538927022288877
0.8032999999999999,0.011031336573626609
0.8061999999999999,0.011497336363282307
0.8090999999999999,0.01193829594466246
0.8119999999999999,0.01235612830183429
0.8149,0.012753203276190433
0.8178,0.01313224506632851
0.8207,0.01349621742815459
0.8235999999999999,0.013848200021846934
0.8264999999999999,0.01419125975447719
0.8293999999999999,0.014528321908594757
0.8322999999999999,0.014862046959444068
0.8351999999999999,0.01519471972880596
0.8381,0.015528157408062336
0.841,0.015863641752707203
0.8439,0.01620187850146023
0.8468,0.01654298423881055
0.8496999999999999,0.016886498135573868
0.8525999999999999,0.01723141390273204
0.8554999999999999,0.017576226326639844
0.8583999999999999,0.01791898706899407
0.8613,0.018257365847941354
0.8642,0.018588715237012377
0.8671,0.01891013952430692
0.8699999999999999,0.019218569719479762
0.8728999999999999,0.019510847339046334
0.8757999999999999,0.01978381874599487
0.8786999999999999,0.02003443961588975
0.8815999999999999,0.020259885964164195
0.8845,0.020457664819311033
0.8874,0.020625714947707843
0.8903,0.020762486867623258
0.8932,0.020866992297156394
0.8960999999999999,0.020938816255285438
0.8989999999999999,0.020978089803411967
0.9018999999999999,0.020985426907807234
0.9047999999999999,0.0209618338956
0.9077,0.020908603330427454
0.9106,0.02082720512999317
0.9135,0.02071918628731181
0.9163999999999999,0.020586087164921718
0.9192999999999999,0.020429377978791862
0.9221999999999999,0.020250414911460842
0.9250999999999999,0.020050412287303046
0.9279999999999999,0.019830426009090355
0.9309,0.0195913440520753
0.9338,0.01933388174090547
0.9367,0.019058581890961383
0.9396,0.018765821663748426
0.9424999999999999,0.01845582839972588
0.9453999999999999,0.018128705529460363
0.9482999999999999,0.017784467348727972
0.9511999999999999,0.017423078890375598
0.9541,0.017044495378474373
0.957,0.016648695549705377
0.9599,0.01623570460225187
0.9627999999999999,0.015805605154088947
0.9656999999999999,0.015358537415351977
0.9685999999999999,0.01489469186458991
0.9714999999999999,0.014414298527876481
0.9743999999999999,0.013917616527855088
0.9773,0.013404926385391258
0.9802,0.012876526247184852
0.9831,0.01233273223347869
0.986,0.011773882590383505
0.9888999999999999,0.011200345173591928
0.9917999999999999,0.010612527775262533
0.9946999999999999,0.010010890778284291
0.9975999999999999,0.009395961534189038
1.0005,0.008768349745808385
1.0033999999999998,0.008128763052765596
1.0063,0.007478022010763198
1.0091999999999999,0.006817073731783656
1.0121,0.0061470035747026655
1.015,0.005469044364698714
1.0179,0.004784582576222238
1.0208,0.004095160675560982
1.0236999999999998,0.003402474433448812
1.0266,0.002708363691128484
1.0294999999999999,0.0020147951181369657
1.0324,0.0013238362326581173
1.0352999999999999,0.000637621434861607
1.0382,-4.168726561275898e-05
1.0411,-0.0007119403947953811
1.044,-0.0013710367631614778
1.0469,-0.0020169501455919296
1.0497999999999998,-0.0026477442756622327
1.0527,-0.0032615765269654847
1.0555999999999999,-0.00385669368148388
1.0585,-0.004431425321945517
1.0614,-0.004984181012583805
1.0643,-0.005513456436680691
1.0672,-0.006017851412292866
1.0700999999999998,-0.00649609986965503
1.073,-0.006947109122697275
1.0758999999999999,-0.007370003586143976
1.0788,-0.0077641666953709035
1.0816999999999999,-0.00812927420000311
1.0846,-0.008465312195176539
1.0875,-0.008772574261245865
1.0903999999999998,-0.009051634003680307
1.0933,-0.009303292163375177
1.0961999999999998,-0.009528501116710388
1.0991,-0.009728273481953242
1.1019999999999999,-0.009903584894823056
1.1049,-0.010055282964858452
1.1078,-0.010184014387121984
1.1107,-0.010290180062846386
1.1136,-0.010373924315501217
1.1164999999999998,-0.010435159685929358
1.1194,-0.010473624248909767
1.1222999999999999,-0.010488964626183012
1.1252,-0.010480835265064055
1.1280999999999999,-0.010449003197260777
1.131,-0.010393447320193112
1.1339,-0.01031444216132881
1.1368,-0.010212618020499666
1.1397,-0.010088992205046965
1.1425999999999998,-0.009944969478879571
1.1455,-0.009782313336215332
1.1483999999999999,-0.0096030926844254
1.1513,-0.00940961049306348
1.1542,-0.00920432175890439
1.1571,-0.008989747926586184
1.16,-0.008768394098376193
1.1628999999999998,-0.00854267437489512
1.1658,-0.008314849704476312
1.1686999999999999,-0.008086981627543571
1.1716,-0.007860904046996487
1.1744999999999999,-0.007638213407138246
1.1774,-0.007420275398446032
1.1803,-0.0072082438111103235
1.1831999999999998,-0.0070030849959905545
1.1861,-0.006805600214345871
1.1889999999999998,-0.006616438483552964
1.1919,-0.006436094522477707
1.1947999999999999,-0.006264889790126791
1.1977,-0.006102938726707951
1.2006,-0.005950106269293116
1.2035,-0.005805965671013393
1.2064,-0.005669766972606164
1.2092999999999998,-0.005540425861525251
1.2122,-0.00541654016917157
1.2150999999999998,-0.005296437300088199
1.218,-0.005178251144756607
1.2208999999999999,-0.005060022379351429
1.2238,-0.004939812403293547
1.2267,-0.004815819203344977
1.2296,-0.004686483444968782
1.2325,-0.004550574878637038
1.2353999999999998,-0.00440725213672981
1.2383,-0.00425609247015616
1.2411999999999999,-0.004097091313024293
1.2441,-0.003930634377883173
1.2469999999999999,-0.00375744711245372
1.2499,-0.0035785277784326284
1.2528,-0.0033950711896980168
1.2556999999999998,-0.0032083903234397366
1.2586,-0.003019842632484009
1.2614999999999998,-0.0028307669551889954
1.2644,-0.0026424354278215844
1.2672999999999999,-0.002456022745060331
1.2702,-0.002272592570494121
1.2731,-0.0020930981497342947
1.2759999999999998,-0.0019183917330696488
1.2789,-0.0017492359037960352
1.2817999999999998,-0.0015863098516020583
1.2847,-0.001430205184971988
1.2875999999999999,-0.0012814087127964084
1.2905,-0.001140273004191242
1.2933999999999999,-0.0010069785604219174
1.2963,-0.0008814933650876692
1.2992,-0.0007635360826209779
1.3020999999999998,-0.000652548396067286
1.305,-0.0005476804249374812
1.3078999999999998,-0.0004477914700809503
1.3108,-0.0003514669674492019
1.3136999999999999,-0.0002570516494403764
1.3166,-0.00016269835588148942
1.3195,-6.643140255114352e-05
1.3224,3.3777343854417635e-05
1.3253,0.0001399225719029003
1.3281999999999998,0.0002538738577041035
1.3311,0.00037728326744675746
1.3339999999999999,0.0005114978365441397
1.3369,0.000657482476853699
1.3397999999999999,0.0008157581587356404
1.3427,0.0009863589724897306
1.3456,0.001168810107156293
1.3484999999999998,0.0013621271373369895
1.3514,0.0015648354850125174
1.3542999999999998,0.0017750076517264563
1.3572,0.0019903148571142645
1.3600999999999999,0.002208089096278506
1.363,0.0024253913499276926
1.3659,0.002639081740441026
1.3687999999999998,0.002845887796413737
1.3717,0.003042467635667259
1.3745999999999998,0.0032254657936392375
1.3775,0.0033915606236116667
1.3803999999999998,0.003537503651066604
1.3833,0.0036601528194239157
1.3861999999999999,0.003756502889553173
1.3891,0.0038237169286806844
1.392,0.0038591625173717233
1.3948999999999998,0.0038604549736871705
1.3978,0.003825507852037096
1.4006999999999998,0.0037525887663455077
1.4036,0.003640376750012607
1.4064999999999999,0.0034880162047735102
1.4094,0.0032951620149633556
1.4122999999999999,0.003062010442804245
1.4152,0.0027893108365463406
1.4181,0.0024783540175080344
1.4209999999999998,0.0021309346570016615
1.4239,0.00174928716941926
1.4267999999999998,0.0013359975413416133
1.4297,0.0008938966427798136
1.4325999999999999,0.0004259432200627629
1.4355,-6.489376241468861e-05
1.4384,-0.0005757439158529665
1.4412999999999998,-0.0011039275816798711
1.4442,-0.0016470264121137552
1.4470999999999998,-0.002202930604511527
1.45,-0.0027698637265215235
1.4528999999999999,-0.003346387811136187
1.4558,-0.003931392071420241
1.4586999999999999,-0.00452406845648888
1.4615999999999998,-0.005123876806379896
1.4645,-0.005730501973722086
1.4673999999999998,-0.0063438051420434596
1.4703,-0.006963771599158643
1.4731999999999998,-0.007590457191385569
1.4761,-0.008223935405266128
1.4789999999999999,-0.008864246489932141
1.4819,-0.009511349418632782
1.4848,-0.010165077032596757
1.4876999999999998,-0.010825094576050416
1.4906,-0.011490862022337962
1.4934999999999998,-0.012161600983437397
1.4964,-0.012836267430588945
1.4992999999999999,-0.013513531818070388
1.5022,-0.014191768427765896
1.5050999999999999,-0.014869055760081207
1.508,-0.01554318945429048
1.5109,-0.01621170838654583
1.5137999999999998,-0.016871933241065746
1.5167,-0.01752101518643339
1.5195999999999998,-0.018155990748534682
1.5225,-0.018773838052082714
1.5253999999999999,-0.019371529625249264
1.5283,-0.019946077906240263
1.5312,-0.020494571113326785
1.5340999999999998,-0.02101419876337421
1.537,-0.021502267470036723
1.5398999999999998,-0.021956208579041618
1.5428,-0.02237357977656803
1.5456999999999999,-0.022752063191255
1.5486,-0.023089462795203627
1.5514999999999999,-0.023383704071974473
1.5543999999999998,-0.023632838870641062
1.5573,-0.023835058053838856
1.5601999999999998,-0.023988714031150132
1.5631,-0.02409235467372435
1.5659999999999998,-0.024144769497252694
1.5689,-0.024145048255553685
1.5717999999999999,-0.02409265089301606
1.5747,-0.023987485832945354
1.5776,-0.023829990769530532
1.5804999999999998,-0.023621206913747375
1.5834,-0.023362834944632017
1.5862999999999998,-0.023057259892423583
1.5892,-0.022707533760781818
1.5920999999999998,-0.022317309142787185
1.595,-0.021890723754696237
1.5978999999999999,-0.021432243255947215
1.6008,-0.020946476132998645
1.6037,-0.02043797823988061
1.6065999999999998,-0.01991106505279192
1.6095,-0.01936964709725736
1.6123999999999998,-0.018817099497981393
1.6153,-0.018256171678005438
1.6181999999999999,-0.017688939102053013
1.6211,-0.017116796106728227
1.6239999999999999,-0.016540487019747342
1.6268999999999998,-0.015960171268959055
1.6298,-0.015375516466251413
1.6326999999999998,-0.014785811487776931
1.6356,-0.014190089905515143
1.6384999999999998,-0.013587253579122714
1.6414,-0.012976187406244781
1.6442999999999999,-0.012355859156632594
1.6471999999999998,-0.011725402263288791
1.6501,-0.011084183224010329
1.6529999999999998,-0.010431857707077078
1.6559,-0.009768419891712048
1.6587999999999998,-0.009094248110491048
1.6617,-0.008410147271011473
1.6645999999999999,-0.007717385872666286
