# Strata Output: Acceleration Time Series
# Project:TST site
# Time (s),S-1-M-NORTHR\H12180.AT2,
0,-0.0012332470513178886
0.01,-0.0012039689890166888
0.02,-0.0011721566879833922
0.03,-0.0011379565506271642
0.04,-0.0011015202873741474
0.05,-0.0010630093219338342
0.06,-0.00102259873045343
0.07,-0.0009804799155415003
0.08,-0.0009368614248904824
0.09,-0.0008919676093919307
0.1,-0.0008460351659784958
0.11,-0.0007993079672840615
0.12,-0.000752030865881902
0.13,-0.0007044433870666886
0.14,-0.0006567742827686718
0.15,-0.0006092377163108075
0.16,-0.0005620314144240042
0.17,-0.000515336682547776
0.18,-0.0004693198490880654
0.19,-0.0004241345174336186
0.2,-0.0003799239369103367
0.21,-0.0003368228989577264
0.22,-0.00029495875658472657
0.23,-0.0002544513789009181
0.24,-0.00021541202719143574
0.25,-0.00017794134587056823
0.26,-0.00014212688750834274
0.27,-0.00010804076863473275
0.28,-7.573803911182028e-05
0.29,-4.525615649842561e-05
0.3,-1.661566871454273e-05
0.31,1.0178026653270094e-05
0.32,3.5132145789277584e-05
0.33,5.8263586378269346e-05
0.34,7.959600286345164e-05
0.35000000000000003,9.915719726490641e-05
0.36,0.00011697696014583052
0.37,0.00013308527465609313
0.38,0.00014751064991602606
0.39,0.00016027830811685728
0.4,0.00017140805422911491
0.41000000000000003,0.00018091180890188137
0.42,0.0001887909270696442
0.43,0.00019503344632773934
0.44,0.0001996113494551028
0.45,0.0002024777895294418
0.46,0.00020356411757733726
0.47000000000000003,0.00020277645677555753
0.48,0.00019999153575151382
0.49,0.0001950514441098665
0.5,0.0001877569215664956
0.51,0.00017785865264734722
0.52,0.0001650458935932249
0.53,0.00014893159794787902
0.54,0.00012903318954085146
0.55,0.00010474828363528992
0.56,7.532527005211672e-05
0.5700000000000001,3.983012204800455e-05
0.58,-2.885818701343889e-06
0.59,-5.420530577794425e-05
0.6,-0.00011572667377861577
0.61,-0.0001891604058785894
0.62,-0.0002760690418320285
0.63,-0.0003773802423619471
0.64,-0.0004927004132373583
0.65,-0.0006197088160672053
0.66,-0.0007541575066611852
0.67,-0.0008907740162577018
0.68,-0.0010245909276371111
0.6900000000000001,-0.0011518229452641459
0.7000000000000001,-0.0012699262040184393
0.71,-0.0013771631378814834
0.72,-0.0014721827049185602
0.73,-0.0015538668375135473
0.74,-0.0016213684464559672
0.75,-0.001674175997046719
0.76,-0.0017121336662233163
0.77,-0.0017354191793715428
0.78,-0.001744466731198035
0.79,-0.0017398146322263627
0.8,-0.0017219225168855611
0.81,-0.0016910673395196857
0.8200000000000001,-0.001647414817638687
0.8300000000000001,-0.001591302277771695
0.84,-0.0015236945225057382
0.85,-0.0014466359338697824
0.86,-0.0013632815958871283
0.87,-0.001277052495789656
0.88,-0.001190172525967672
0.89,-0.0011028256284645699
0.9,-0.0010137514101319401
0.91,-0.0009215607031759925
0.92,-0.0008255861767120325
0.93,-0.0007258692886176689
0.9400000000000001,-0.0006226826465380501
0.9500000000000001,-0.00051616121690134
0.96,-0.00040623524280366196
0.97,-0.00029271148540274114
0.98,-0.00017536185329781426
0.99,-5.404361850797148e-05
1,7.110050197956948e-05
1.01,0.00019942016883885106
1.02,0.00032957236983971103
1.03,0.0004593344084880166
1.04,0.0005854381926470208
1.05,0.000703755464725575
1.06,0.0008102874624932319
1.07,0.0009027125836751301
1.08,0.0009812320588343643
1.09,0.001047871565147856
1.1,0.0011049828842088025
1.11,0.0011542023509397202
1.12,0.001196330260222442
1.1300000000000001,0.0012317562396659393
1.1400000000000001,0.0012608458153128893
1.1500000000000001,0.001284067715767986
1.16,0.0013019841999285066
1.17,0.0013152231016889566
1.18,0.0013244065937702
1.19,0.0013300126537634641
1.2,0.0013322680330761095
1.21,0.001331177502417429
1.22,0.0013266597932601227
1.23,0.0013186785669509252
1.24,0.0013073039848751804
1.25,0.0012927261698703202
1.26,0.0012752642884304637
1.27,0.0012553715512038366
1.28,0.0012336019148050286
1.29,0.0012105294357710108
1.3,0.0011866587774574974
1.31,0.0011623717558717284
1.32,0.0011379228057900176
1.33,0.0011134687159322055
1.34,0.0010891113487182373
1.35,0.0010649345135643705
1.36,0.0010410217090571399
1.37,0.0010174540601657356
1.3800000000000001,0.000994301487923397
1.3900000000000001,0.0009716204264773371
1.4000000000000001,0.0009494584510124413
1.41,0.0009278572703662079
1.42,0.0009068496109240059
1.43,0.0008864537218732258
1.44,0.0008666718828437274
1.45,0.0008474961348188012
1.46,0.0008289193371855258
1.47,0.0008109461191101652
1.48,0.0007935992271322185
1.49,0.0007769208341326041
1.5,0.0007609707649211737
1.51,0.0007458223225021563
1.52,0.0007315544305294073
1.53,0.0007182400355928168
1.54,0.0007059334143238344
1.55,0.00069465884378115
1.56,0.0006844016870372707
1.57,0.0006751038274250196
1.58,0.0006666664528272885
1.59,0.000658960742367365
1.6,0.0006518429398609626
1.61,0.0006451695472503569
1.62,0.0006388114484084488
1.6300000000000001,0.0006326682309832982
1.6400000000000001,0.0006266820453629881
1.6500000000000001,0.0006208461395742847
1.6600000000000001,0.0006152021884890262
1.67,0.0006098251061688783
1.68,0.0006048007934484498
1.69,0.0006002048825149691
1.7,0.0005960877707934782
1.71,0.0005924670607843929
1.72,0.000589326258218294
1.73,0.0005866188631591341
1.74,0.0005842771404488648
1.75,0.0005822229998512538
1.76,0.0005803766488166675
1.77,0.0005786594128324476
1.78,0.000576990709985983
1.79,0.0005752830211061133
1.8,0.0005734397046182953
1.81,0.0005713584428270947
1.82,0.0005689396762842687
1.83,0.0005660971902337242
1.84,0.0005627678849271164
1.85,0.0005589176289899462
1.86,0.0005545397208224037
1.87,0.0005496450258312055
1.8800000000000001,0.0005442485971901054
1.8900000000000001,0.0005383603963170809
1.9000000000000001,0.0005319840510608801
1.9100000000000001,0.0005251221324787772
1.92,0.0005177840892756272
1.93,0.0005099938143418064
1.94,0.0005017952188742589
1.95,0.0004932543030453226
1.96,0.00048445601612311204
1.97,0.00047549554354524076
1.98,0.0004664665850528571
1.99,0.00045745079128384393
2,0.0004485108945237514
2.0100000000000002,0.00043968771266183565
2.02,0.00043100041603078254
2.0300000000000002,0.00042244970871413705
2.04,0.0004140235134962618
2.05,0.00040570366918618215
2.06,0.0003974712298511415
2.07,0.0003893091956791059
2.08,0.0003812041990569653
2.09,0.0003731489726652652
2.1,0.000365145162165033
2.11,0.00035720534965868783
2.12,0.0003493543102069063
2.13,0.00034162998282489203
2.14,0.0003340843066359772
2.15,0.0003267833474622769
2.16,0.00031980537494272784
2.17,0.000313236283671153
2.18,0.000307164008726396
2.19,0.00030167497237839437
2.2,0.00029685452528199736
2.21,0.0002927918205403792
2.22,0.00028958832951361834
2.23,0.0002873678109221599
2.24,0.00028628383373428194
2.25,0.00028651912427468765
2.2600000000000002,0.00028826751106434653
2.27,0.00029168413813452986
2.2800000000000002,0.000296785395487763
2.29,0.00030328552572392146
2.3000000000000003,0.00031039769664159415
2.31,0.00031673473221105014
2.32,0.0003205534536683497
2.33,0.0003204342623150731
2.34,0.0003159713527387388
2.35,0.0003078315989781669
2.36,0.00029716502317494314
2.37,0.0002849625000470419
2.38,0.00027180761872408525
2.39,0.0002580060991892893
2.4,0.0002438102083546857
2.41,0.0002295251716415298
2.42,0.00021550010185189333
2.43,0.00020209174785334487
2.44,0.00018962978159769227
2.45,0.00017835900627092026
2.46,0.000168371684817865
2.47,0.00015958921772700905
2.48,0.00015181738678211464
2.49,0.00014483464078970205
2.5,0.00013846039123700785
2.5100000000000002,0.0001325879647359162
2.52,0.0001271995049919354
2.5300000000000002,0.00012237505499984643
2.54,0.00011828610499886668
2.5500000000000003,0.00011516158007055411
2.56,0.00011323564764758581
2.57,0.00011270174626315319
2.58,0.0001136906019806125
2.59,0.00011627490930783882
2.6,0.00012049317408929998
2.61,0.00012638119373661427
2.62,0.00013399969767493704
2.63,0.00014345136591230608
2.64,0.00015488589336837586
2.65,0.00016849111730181024
2.66,0.00018445936185803807
2.67,0.00020290895039959086
2.68,0.0002237419535194128
2.69,0.00024644376452576534
2.7,0.0002699035022387292
2.71,0.0002924595178653683
2.72,0.0003123883367017446
2.73,0.0003286898353570943
2.74,0.00034153243626742894
2.75,0.00035194601235238746
2.7600000000000002,0.0003611320953084755
2.77,0.00036999875877549634
2.7800000000000002,0.0003791333668433713
2.79,0.0003890234893897806
2.8000000000000003,0.0004002405598779942
2.81,0.0004134817103316168
2.82,0.000429532139639224
2.83,0.00044920085902022737
2.84,0.0004731924680465198
2.85,0.0005018502915387854
2.86,0.0005347536186547041
2.87,0.0005702102633750401
2.88,0.0006048232084707814
2.89,0.0006336025660129958
2.9,0.0006511810772329903
2.91,0.0006539127004486421
2.92,0.0006414111630800016
2.93,0.0006162889451632453
2.94,0.0005827415368478795
2.95,0.0005457036693717227
2.96,0.0005114106852801317
2.97,0.0004885963523289902
2.98,0.0004885682653734062
2.99,0.0005228669704690049
3,0.0005991262810451728
3.0100000000000002,0.0007175042847417878
3.02,0.0008697979020010763
3.0300000000000002,0.0010413894385734182
3.04,0.0012145935164326832
3.0500000000000003,0.0013721761384659953
3.06,0.0015009861359514742
3.0700000000000003,0.001595800399800728
3.08,0.0016620361411313384
3.09,0.0017150860916275259
3.1,0.0017758581833838705
3.11,0.0018648026111108553
3.12,0.001997654683730933
3.13,0.002184978266877572
3.14,0.002434530538762349
3.15,0.00275289795560479
3.16,0.0031436245769369867
3.17,0.003601901636033151
3.18,0.004108396271073393
3.19,0.004626052649914206
3.2,0.005103124303798939
3.21,0.005483150142965183
3.22,0.005719311065333982
3.23,0.005788682909649173
3.24,0.005702012215148159
3.25,0.005505846832071226
3.2600000000000002,0.005275639194371531
3.27,0.005100605803047906
3.2800000000000002,0.005062900398407733
3.29,0.0052150811260962245
3.3000000000000003,0.005561484289902301
3.31,0.006049955092118339
3.3200000000000003,0.006579137643346216
3.33,0.007022555562685547
3.34,0.007263861973011416
3.35,0.007230991570032032
3.36,0.006916002309113575
3.37,0.006373599643227898
3.38,0.005700396789058225
3.39,0.005004237763140218
3.4,0.004375940494451103
3.41,0.003873121699365382
3.42,0.0035185793965191417
3.43,0.0033086397551611866
3.44,0.00322363232978102
3.45,0.0032336667325123434
3.46,0.003297824855181567
3.47,0.0033619373327429796
3.48,0.003363232261904074
3.49,0.0032445498659899965
3.5,0.0029708668814683544
3.5100000000000002,0.0025371942289312338
3.52,0.001964220904077468
3.5300000000000002,0.0012890563306057405
3.54,0.0005613852334906635
3.5500000000000003,-0.00015352325834423397
3.56,-0.0007752294320437951
3.5700000000000003,-0.0012236514011817585
3.58,-0.0014500675653427797
3.59,-0.0014696575362057281
3.6,-0.0013751930686685802
3.61,-0.0013183082227394025
3.62,-0.0014614305035807688
3.63,-0.001918312163862408
3.64,-0.002706885688187126
3.65,-0.0037356284572670944
3.66,-0.004833237294438378
3.67,-0.005811316578232276
3.68,-0.006530455366892465
3.69,-0.0069378859578049235
3.7,-0.0070660291567686065
3.71,-0.007007677615547658
3.72,-0.006890271714029591
3.73,-0.006856293205290988
3.74,-0.0070407456416883415
3.75,-0.007538800459422917
3.7600000000000002,-0.0083715186702147
3.77,-0.009466536357569303
3.7800000000000002,-0.010666689458635146
3.79,-0.011767945241316682
3.8000000000000003,-0.012575845944706067
3.81,-0.012962089106924674
3.8200000000000003,-0.01290126893592293
3.83,-0.012473547189403734
3.84,-0.011832771420849326
3.85,-0.011155615789964685
3.86,-0.010595011503719543
3.87,-0.010252347124202858
3.88,-0.01016459594303426
3.89,-0.01029432000288197
3.9,-0.010520620483565156
3.91,-0.01064484593681213
3.92,-0.010428388580820196
3.93,-0.009665340793456954
3.94,-0.008268610749623111
3.95,-0.006329751224358709
3.96,-0.004116666357478667
3.97,-0.0020025804104956643
3.98,-0.00035400712066620813
3.99,0.0005779160727513019
4,0.0007253633989725433
4.01,0.0002156427225671856
4.0200000000000005,-0.0006678382864963447
4.03,-0.0015607604379144673
4.04,-0.0021118807331853393
4.05,-0.0020768690913951977
4.0600000000000005,-0.0013916076611029812
4.07,-0.00020512739577800517
4.08,0.0011402300785001934
4.09,0.0021813192152977446
4.1,0.002447786279975752
4.11,0.0015925138929734465
4.12,-0.0004989633276802443
4.13,-0.003661367309394603
4.14,-0.007489545028563988
4.15,-0.011454901252218116
4.16,-0.015052073329251457
4.17,-0.017917526072837458
4.18,-0.0198815286075671
4.19,-0.020950531605814744
4.2,-0.021249922915597682
4.21,-0.02097398014956124
4.22,-0.02037295946422315
4.23,-0.019758339886053834
4.24,-0.019472201240724893
4.25,-0.019792690712697427
4.26,-0.020816456681009288
4.2700000000000005,-0.02239683768310407
4.28,-0.02418178401783969
4.29,-0.02573104612776238
4.3,-0.02665827735198787
4.3100000000000005,-0.02674396895563278
4.32,-0.025980941390054538
4.33,-0.024542435576113967
4.34,-0.022696309065948696
4.3500000000000005,-0.020710813054526572
4.36,-0.01879379374875197
4.37,-0.01707704282264256
4.38,-0.015623634010372011
4.39,-0.014428315152097205
4.4,-0.013405616159647452
4.41,-0.012390887379033594
4.42,-0.01118093707157118
4.43,-0.009608558808324426
4.44,-0.007612376984922129
4.45,-0.005261177883198909
4.46,-0.002717293975408357
4.47,-0.00015712539256390004
4.48,0.0023079952971880313
4.49,0.004667224655935758
4.5,0.006987160893180284
4.51,0.00935187517816997
4.5200000000000005,0.011805877225554607
4.53,0.014332285923420405
4.54,0.016875158163861946
4.55,0.019388915199538045
4.5600000000000005,0.021879642303978403
4.57,0.024406619003837154
4.58,0.027040475085347012
4.59,0.029803967866904056
4.6000000000000005,0.03262777721572772
4.61,0.035339958208403445
4.62,0.03769341073391248
4.63,0.039427434470517934
4.64,0.04034973272504047
4.65,0.04041116052057724
4.66,0.03973750894984278
4.67,0.038595422124437194
4.68,0.037300680852405246
4.69,0.03610568184555586
4.7,0.035113016843941136
4.71,0.03425124102042553
4.72,0.03332102255373236
4.73,0.03208546254946289
4.74,0.03035755164929774
4.75,0.028048064734042734
4.76,0.025170398229531987
4.7700000000000005,0.021821850219808956
4.78,0.018155826440110327
4.79,0.014344994413911714
4.8,0.010535895987691245
4.8100000000000005,0.006809956662526921
4.82,0.0031747444122996534
4.83,-0.0004014749934714632
4.84,-0.003927179668316635
4.8500000000000005,-0.007338129557820992
4.86,-0.010497496327707648
4.87,-0.013245502441531769
4.88,-0.015465132751504448
4.89,-0.017127671678122385
4.9,-0.018300151979859645
4.91,-0.019115160729068027
4.92,-0.01971543309418328
4.93,-0.020192993773166162
4.94,-0.02054303310381569
4.95,-0.02064721100859889
4.96,-0.020294947342153934
4.97,-0.019242698261241
4.98,-0.017296513905109574
4.99,-0.014389392903088733
5,-0.010624416546371234
5.01,-0.006269791210435311
5.0200000000000005,-0.0017110126912978885
5.03,0.0026261053363126324
5.04,0.006369540095315327
5.05,0.009296541084027811
5.0600000000000005,0.011398306770438207
5.07,0.012873264771108449
5.08,0.014033606925722484
5.09,0.015158771410642927
5.1000000000000005,0.016364127442320135
5.11,0.01754931612994126
5.12,0.018452479213401637
5.13,0.018783044498149864
5.14,0.018364908126266982
5.15,0.017217630708842704
5.16,0.01553632970955139
5.17,0.013584121295156334
5.18,0.011563777269595047
5.19,0.009556775244460924
5.2,0.007574109271282051
5.21,0.005669664148501822
5.22,0.004006316304181038
5.23,0.0028044087918998226
5.24,0.0022087604362955554
5.25,0.0021834204063055328
5.26,0.002519860236223059
5.2700000000000005,0.002953355705028192
5.28,0.003305592115142545
5.29,0.0035619117512614906
5.3,0.0038418356393004212
5.3100000000000005,0.004293059287616193
5.32,0.004987465090502756
5.33,0.005888060164858806
5.34,0.0068958731539466335
5.3500000000000005,0.0079281248859559
5.36,0.008966552555995568
5.37,0.010045064069792645
5.38,0.011191175609374352
5.39,0.012369282844680191
5.4,0.013473568953494495
5.41,0.014378147116563702
5.42,0.015003135416133984
5.43,0.015343629506609115
5.44,0.015439936917275326
5.45,0.015311247671378647
5.46,0.014905087405119196
5.47,0.014110306520140746
5.48,0.01283502029366344
5.49,0.011101231170406322
5.5,0.009097367602363732
5.51,0.007150996467713096
5.5200000000000005,0.005615333862252291
5.53,0.0047037119353185
5.54,0.0043447072553794205
5.55,0.004138489320502864
5.5600000000000005,0.003455907632988427
5.57,0.0016514929198677823
5.58,-0.0016983969561860806
5.59,-0.006633227658712095
5.6000000000000005,-0.012784582293217836
5.61,-0.019493619712984172
5.62,-0.026019143623267516
5.63,-0.031753382290200145
5.64,-0.03635883318528658
5.65,-0.039778954513709684
5.66,-0.042151018930057293
5.67,-0.04370454115174331
5.68,-0.04470872798113037
5.69,-0.045458471531548104
5.7,-0.04624018448385705
5.71,-0.047244334754381355
5.72,-0.04845879184032642
5.73,-0.049619208759524185
5.74,-0.050274675783598954
5.75,-0.049960669555202335
5.76,-0.04840033864218342
5.7700000000000005,-0.045630101991596325
5.78,-0.04198397003087111
5.79,-0.03794197761654824
5.8,-0.03390975121157114
5.8100000000000005,-0.03002966830584746
5.82,-0.026118707699613723
5.83,-0.02177077327955887
5.84,-0.01657115396067906
5.8500000000000005,-0.010310496053395858
5.86,-0.0030984209264953706
5.87,0.004661589624853738
5.88,0.012410531257072444
5.89,0.019611187866507482
5.9,0.02587019954342219
5.91,0.030945115121941393
5.92,0.03465631179914989
5.93,0.036788864235603444
5.94,0.03707158325162552
5.95,0.03526648586907427
5.96,0.0313278446251822
5.97,0.02553335712363382
5.98,0.018490678386669793
5.99,0.010992849968909826
6,0.0037868711325440146
6.01,-0.002635778055481914
6.0200000000000005,-0.008135204594948174
6.03,-0.012870796983436421
6.04,-0.0171418022611115
6.05,-0.021222735233226233
6.0600000000000005,-0.025287005179487898
6.07,-0.029432125259147277
6.08,-0.033737990953595136
6.09,-0.03827469081305609
6.1000000000000005,-0.04303220654994525
6.11,-0.04781746249279785
6.12,-0.052197433186934726
6.13,-0.055547902354072566
6.140000000000001,-0.057222421969467314
6.15,-0.05680173036337077
6.16,-0.054321487460801815
6.17,-0.05034202328344614
6.18,-0.0457801319614612
6.19,-0.04156186330695854
6.2,-0.038268973730973946
6.21,-0.0359477968459282
6.22,-0.03414947339783488
6.23,-0.032156494212714055
6.24,-0.029273827181027768
6.25,-0.02504711386393007
6.26,-0.019329058098316945
6.2700000000000005,-0.012218092586844293
6.28,-0.003963986240346362
6.29,0.005082593266028635
6.3,0.01447799942690658
6.3100000000000005,0.023708020334164248
6.32,0.03226676403898543
6.33,0.03977786248713488
6.34,0.04610059098900357
6.3500000000000005,0.05135712679167533
6.36,0.05585289615892747
6.37,0.05993287508707365
6.38,0.06386955753383937
6.390000000000001,0.06784714820141785
6.4,0.07201339611704081
6.41,0.07651497253323444
6.42,0.08146302470904035
6.43,0.08684271695379508
6.44,0.09242160724127642
6.45,0.09771493310295382
6.46,0.10204243440349756
6.47,0.10466728809023351
6.48,0.10496332662099743
6.49,0.10254363181276863
6.5,0.09730904678117058
6.51,0.0894219181395969
6.5200000000000005,0.07925289894523407
6.53,0.06735170323665828
6.54,0.05444141508437123
6.55,0.04137530288957047
6.5600000000000005,0.028995260372707454
6.57,0.01790722988697484
6.58,0.008277838114340057
6.59,-0.0002219054254101564
6.6000000000000005,-0.008266903192406956
6.61,-0.0165723221509156
6.62,-0.025566257711410856
6.63,-0.03519109925452117
6.640000000000001,-0.04492199484085909
6.65,-0.05397520838089542
6.66,-0.061578757871392754
6.67,-0.06716796255812879
6.68,-0.07045229151182089
6.69,-0.07139815314836874
6.7,-0.07020411056226454
6.71,-0.06729767700634325
6.72,-0.0633127457954998
6.73,-0.05898555202750011
6.74,-0.05495950443039779
6.75,-0.05157122143237271
6.76,-0.048727449834752475
6.7700000000000005,-0.0459422335330103
6.78,-0.04252121492845985
6.79,-0.037811506367448296
6.8,-0.03141232228871296
6.8100000000000005,-0.023269904018307103
6.82,-0.01364500620942063
6.83,-0.0030046526878591425
6.84,0.008084656576323047
6.8500000000000005,0.01900885546731626
6.86,0.029110332287407333
6.87,0.03770986536884156
6.88,0.04421055269603057
6.890000000000001,0.048269191688027416
6.9,0.049938924000140286
6.91,0.04968931853451183
6.92,0.048287471313650306
6.93,0.04659535919004063
6.94,0.04535844937908538
6.95,0.04504213157699402
6.96,0.045743449323101426
6.97,0.047185719210136805
