# Strata Output: Acceleration Time Series
# Project:TST site
# Time (s),S-1-M-LOMAP\GIL067.AT2,
0,-0.004092588080704787
0.005,-0.004050870905545012
0.01,-0.004008276324044266
0.015,-0.003964822729207971
0.02,-0.003920529088162501
0.025,-0.0038754149708913237
0.03,-0.0038295005747186524
0.035,-0.003782806743707241
0.04,-0.0037353549822092447
0.045,-0.00368716746191698
0.05,-0.0036382670218995444
0.055,-0.0035886771612806054
0.06,-0.003538422024398536
0.065,-0.0034875263784927926
0.07,-0.0034360155841607893
0.075,-0.0033839155590228475
0.08,-0.003331252735206904
0.085,-0.0032780540114103187
0.09,-0.0032243467004072703
0.095,-0.0031701584729430152
0.1,-0.00311551729898865
0.105,-0.003060451387322905
0.11,-0.003004989124368665
0.115,-0.0029491590131386866
0.12,-0.0028929896130573322
0.125,-0.002836509481317789
0.13,-0.002779747116322265
0.135,-0.0027227309036442727
0.14,-0.002665489064846479
0.145,-0.0026080496093939024
0.15,-0.0025504402898260865
0.155,-0.0024926885602836696
0.16,-0.002434821538440245
0.165,-0.0023768659708509835
0.17,-0.002318848201708179
0.17500000000000002,-0.0022607941449757055
0.18,-0.002202729259865759
0.185,-0.0021446785296109173
0.19,-0.00208666644347677
0.195,-0.0020287169819477426
0.2,-0.0019708536050041477
0.20500000000000002,-0.0019130992433879566
0.21,-0.0018554762927293536
0.215,-0.0017980066103815435
0.22,-0.001740711514777899
0.225,-0.0016836117870996337
0.23,-0.0016267276750130065
0.23500000000000001,-0.0015700788982122489
0.24,-0.001513684655487738
0.245,-0.0014575636330275846
0.25,-0.00140173401365965
0.255,-0.0013462134867470333
0.26,-0.0012910192584651152
0.265,-0.0012361680622101198
0.27,-0.001181676168919117
0.275,-0.001127559397115556
0.28,-0.001073833122532478
0.28500000000000003,-0.0010205122872066715
0.29,-0.0009676114079756392
0.295,-0.0009151445843511893
0.3,-0.0008631255057774557
0.305,-0.0008115674583140865
0.31,-0.0007604833308132896
0.315,-0.0007098856206794817
0.32,-0.0006597864393168135
0.325,-0.0006101975173781296
0.33,-0.0005611302099330718
0.335,-0.0005125955016703542
0.34,-0.00046460401224307106
0.34500000000000003,-0.0004171660018546247
0.35000000000000003,-0.00037029137716971893
0.355,-0.0003239896976182472
0.36,-0.00027827018214359605
0.365,-0.00023314171642785836
0.37,-0.0001886128606098784
0.375,-0.0001446918574944664
0.38,-0.00010138664123515099
0.385,-5.870484645966079e-05
0.39,-1.6653817793355093e-05
0.395,2.4759380273415758e-05
0.4,6.55279532363072e-05
0.405,0.00010564536621602874
0.41000000000000003,0.00014510533345822935
0.41500000000000004,0.0001839018077690592
0.42,0.0002220289699623506
0.425,0.0002594812183921058
0.43,0.00029625315864076986
0.435,0.00033233959343000063
0.44,0.0003677355128134133
0.445,0.00040243608470559903
0.45,0.000436436645792068
0.455,0.0004697326928586159
0.46,0.0005023198745672983
0.465,0.0005341939836993681
0.47000000000000003,0.0005653509498749538
0.47500000000000003,0.000595786832751058
0.48,0.0006254978156898312
0.485,0.000654480199882353
0.49,0.000682730398903232
0.495,0.0007102449336660824
0.5,0.0007370204277428779
0.505,0.000763053603004028
0.51,0.0007883412755321752
0.515,0.0008128803517584604
0.52,0.0008366678247663951
0.525,0.000859700770707167
0.53,0.0008819763452682299
0.535,0.0009034917801366408
0.54,0.0009242443793986641
0.545,0.0009442315158179928
0.55,0.0009634506269370546
0.555,0.0009818992109473666
0.56,0.0009995748222777876
0.5650000000000001,0.0010164750668532545
0.5700000000000001,0.001032597596979929
0.5750000000000001,0.001047940105815927
0.58,0.0010625003213928922
0.585,0.0010762760001563783
0.59,0.0010892649199982902
0.595,0.0011014648727597882
0.6,0.0011128736561869031
0.605,0.0011234890653257588
0.61,0.0011333088833490608
0.615,0.0011423308718096696
0.62,0.0011505527603206307
0.625,0.0011579722356639618
0.63,0.0011645869303360916
0.635,0.0011703944105379447
0.64,0.001175392163621511
0.645,0.0011795775850074746
0.65,0.0011829479645884434
0.655,0.001185500472634842
0.66,0.001187232145221346
0.665,0.0011881398691911055
0.67,0.0011882203666763688
0.675,0.0011874701791933103
0.68,0.0011858856513270353
0.685,0.0011834629140243308
0.6900000000000001,0.0011801978675068155
0.6950000000000001,0.0011760861638198297
0.7000000000000001,0.0011711231890258601
0.705,0.0011653040450537602
0.71,0.0011586235312091794
0.715,0.0011510761253516917
0.72,0.0011426559647410562
0.725,0.0011333568265520558
0.73,0.0011231721080567953
0.735,0.0011120948064695998
0.74,0.001100117498449264
0.745,0.0010872323192517306
0.75,0.0010734309415252362
0.755,0.0010587045537400704
0.76,0.0010430438382458944
0.765,0.0010264389489505704
0.77,0.0010088794886173409
0.775,0.0009903544857809263
0.78,0.0009708523712885659
0.785,0.0009503609544767652
0.79,0.0009288673990070168
0.795,0.0009063581983889047
0.8,0.0008828191512356402
0.805,0.0008582353363097972
0.81,0.0008325910874352484
0.8150000000000001,0.0008058699683707943
0.8200000000000001,0.0007780547477658765
0.8250000000000001,0.0007491273743435375
0.8300000000000001,0.0007190689524885555
0.835,0.0006878597184514151
0.84,0.0006554790174184789
0.845,0.0006219052817433509
0.85,0.0005871160106797805
0.855,0.0005510877520156836
0.86,0.0005137960860622166
0.865,0.00047521561252068497
0.87,0.00043531994082176716
0.875,0.0003940816846078802
0.88,0.000351472461115763
0.885,0.00030746289630588665
0.89,0.0002620226366821023
0.895,0.00021512036884563677
0.9,0.00016672384793312554
0.905,0.00011679993619635304
0.91,6.531465308863377e-05
0.915,1.2233238328332028e-05
0.92,-4.2479770488987036e-05
0.925,-9.88604440716395e-05
0.93,-0.00015694534967185852
0.935,-0.00021677141960233653
0.9400000000000001,-0.0002783757982232914
0.9450000000000001,-0.00034179566561477607
0.9500000000000001,-0.0004070680362137105
0.9550000000000001,-0.00047422953082407074
0.96,-0.0005433161206057877
0.965,-0.0006143628419300182
0.97,-0.0006874034813650414
0.975,-0.0007624702305386879
0.98,-0.0008395933112168337
0.985,-0.0009188005716502106
0.99,-0.0010001170560694052
0.995,-0.0010835645501480007
1,-0.0011691611062853845
1.0050000000000001,-0.0012569205536672495
1.01,-0.0013468519992015768
1.0150000000000001,-0.0014389593265603995
1.02,-0.001533240701626016
1.025,-0.001629688093581259
1.03,-0.0017282868216275588
1.035,-0.001829015137791042
1.04,-0.0019318438564193657
1.045,-0.002036736040722494
1.05,-0.0021436467560317423
1.055,-0.0022525228983216743
1.06,-0.0023633031049756967
1.065,-0.0024759177528156534
1.07,-0.0025902890461359414
1.075,-0.0027063311949846224
1.08,-0.0028239506813433992
1.085,-0.002943046608314566
1.09,-0.0030635111250681
1.095,-0.003185229918267465
1.1,-0.003308082759088354
1.105,-0.0034319440938565034
1.11,-0.003556683665794457
1.115,-0.003682167155391924
1.12,-0.0038082568274599503
1.125,-0.003934812173924075
1.1300000000000001,-0.004061690542757505
1.135,-0.004188747745032619
1.1400000000000001,-0.004315838633757663
1.145,-0.0044428176498409015
1.1500000000000001,-0.00456953933208359
1.155,-0.004695858789462647
1.16,-0.004821632135060838
1.165,-0.004946716881817361
1.17,-0.005070972300800728
1.175,-0.005194259742979947
1.18,-0.005316442925542385
1.185,-0.0054373881837393055
1.19,-0.005556964689106577
1.195,-0.0056750446347842405
1.2,-0.005791503388600099
1.205,-0.005906219614644291
1.21,-0.006019075364274135
1.215,-0.006129956137848119
1.22,-0.0062387509189983535
1.225,-0.006345352183862923
1.23,-0.0064496558883716006
1.235,-0.006551561437353934
1.24,-0.006650971639847677
1.245,-0.006747792655475918
1.25,-0.006841933937083194
1.2550000000000001,-0.0069333081749344706
1.26,-0.007021831247677778
1.2650000000000001,-0.007107422184949063
1.27,-0.007190003145983267
1.2750000000000001,-0.007269499417923712
1.28,-0.007345839436744618
1.285,-0.007418954832872675
1.29,-0.0074887805027676006
1.295,-0.007555254706940374
1.3,-0.007618319194193937
1.305,-0.007677919351272417
1.31,-0.0077340043766129145
1.315,-0.007786527476489865
1.32,-0.007835446081505848
1.325,-0.007880722081081957
1.33,-0.007922322073303774
1.335,-0.007960217627162388
1.34,-0.007994385553869887
1.345,-0.00802480818352809
1.35,-0.008051473642990534
1.355,-0.00807437613030388
1.36,-0.008093516180678856
1.365,-0.008108900918549692
1.37,-0.00812054428998303
1.375,-0.008128467269503427
1.3800000000000001,-0.008132698035351478
1.385,-0.00813327210727034
1.3900000000000001,-0.008130232441133922
1.395,-0.008123629475054284
1.4000000000000001,-0.008113521122015003
1.405,-0.008099972704534802
1.41,-0.00808305682734117
1.415,-0.008062853184507246
1.42,-0.008039448297965246
1.425,-0.008012935184770892
1.43,-0.007983412950984294
1.435,-0.007950986310604
1.44,-0.007915765028712118
1.445,-0.007877863288931801
1.45,-0.007837398986545145
1.455,-0.0077944929502297795
1.46,-0.00774926809739894
1.465,-0.007701848530575953
1.47,-0.007652358585074679
1.475,-0.007600921841410573
1.48,-0.007547660119201023
1.485,-0.00749269247264874
1.49,-0.007436134210814876
1.495,-0.0073780959685306804
1.5,-0.007318682855705574
1.5050000000000001,-0.007257993713719091
1.51,-0.007196120507324991
1.5150000000000001,-0.00713314787888645
1.52,-0.00706915288874028
1.5250000000000001,-0.0070042049610598315
1.53,-0.006938366048876187
1.5350000000000001,-0.006871691025125687
1.54,-0.006804228299016018
1.545,-0.0067360206489836295
1.55,-0.006667106255441085
1.555,-0.006597519908765242
1.56,-0.006527294360922326
1.565,-0.006456461783076105
1.57,-0.006385055286729039
1.575,-0.006313110462578159
1.58,-0.006240666889414465
1.585,-0.006167769565074222
1.59,-0.006094470212610985
1.595,-0.006020828417380865
1.6,-0.005946912554480208
1.605,-0.005872800470752814
1.61,-0.005798579891203928
1.615,-0.005724348525918886
1.62,-0.005650213860292326
1.625,-0.005576292618348049
1.6300000000000001,-0.0055027098960155965
1.635,-0.005429597968284437
1.6400000000000001,-0.0053570947810792175
1.645,-0.0052853421453980184
1.6500000000000001,-0.005214483657668777
1.655,-0.0051446623763557065
1.6600000000000001,-0.0050760182905392115
1.665,-0.005008685621451595
1.67,-0.0049427900027118315
1.675,-0.004878445589182853
1.68,-0.00481575214787585
1.685,-0.0047547921870266735
1.69,-0.004695628181243966
1.695,-0.004638299951353193
1.7,-0.00458282225712587
1.705,-0.004529182659404414
1.71,-0.004477339705169252
1.715,-0.0044272214848374535
1.72,-0.004378724605578978
1.725,-0.0043317136177641385
1.73,-0.004286020923936741
1.735,-0.0042414471910844085
1.74,-0.004197762277626601
1.745,-0.0041547066766380305
1.75,-0.004111993466582573
1.7550000000000001,-0.004069310750452854
1.76,-0.00402632455392805
1.7650000000000001,-0.003982682143200668
1.77,-0.0039380157137263875
1.7750000000000001,-0.0038919463925387123
1.78,-0.0038440884891579106
1.7850000000000001,-0.003794053923682918
1.79,-0.003741456755523431
1.795,-0.0036859177324956366
1.8,-0.003627068777719581
1.805,-0.003564557330933306
1.81,-0.003498050461487329
1.815,-0.0034272386724122014
1.82,-0.0033518393185902095
1.825,-0.003271599567267655
1.83,-0.0031862988359992353
1.835,-0.003095750651696372
1.84,-0.002999803884826067
1.845,-0.002898343324970426
1.85,-0.0027912895778201587
1.855,-0.002678598279036827
1.86,-0.0025602586369156952
1.865,-0.002436291332953932
1.87,-0.0023067458266678763
1.875,-0.002171697127635328
1.8800000000000001,-0.00203124211305199
1.885,-0.0018854954823834921
1.8900000000000001,-0.0017345854513331567
1.895,-0.001578649294817688
1.9000000000000001,-0.0014178288525769946
1.905,-0.001252266111242265
1.9100000000000001,-0.0010820989731442376
1.915,-0.0009074573150138762
1.92,-0.0007284594293468511
1.925,-0.0005452089280236893
1.93,-0.00035779217237050514
1.935,-0.00016627627684288909
1.94,2.9292284411604297e-05
1.945,0.00022888845704134345
1.95,0.000432508778753376
1.955,0.0006401709679015937
1.96,0.0008519129672859367
1.965,0.0010677914954664446
1.97,0.0012878801690494389
1.975,0.0015122672680412416
1.98,0.0017410532223039775
1.985,0.0019743479002916585
1.99,0.002212267781543239
1.995,0.002454933091891672
2,0.002702464975090226
2.005,0.002954982766733053
2.0100000000000002,0.00321260142621658
2.015,0.00347542917042687
2.02,0.0037435653393810514
2.025,0.0040170985098398355
2.0300000000000002,0.0042961048587421705
2.035,0.004580646765055173
2.04,0.004870771627171834
2.045,0.005166510864160928
2.05,0.005467879063642747
2.055,0.005774873237270334
2.06,0.006087472146850995
2.065,0.006405635669826726
2.07,0.00672930418156252
2.075,0.007058397942795217
2.08,0.007392816492571616
2.085,0.0077324380588457454
2.09,0.008077119009396895
2.095,0.008426693373791712
2.1,0.008780972471865971
2.105,0.009139744685046724
2.11,0.009502775403489335
2.115,0.009869807174491737
2.12,0.010240560066282399
2.125,0.010614732246642177
2.13,0.010992000758693022
2.1350000000000002,0.011372022457551235
2.14,0.011754435052507731
2.145,0.012138858181200344
2.15,0.012524894426189679
2.1550000000000002,0.012912130171773745
2.16,0.0133001361910843
2.165,0.01368846785168725
2.17,0.01407666483304601
2.1750000000000003,0.014464250261989843
2.18,0.014850729193058443
2.185,0.015235586389100431
2.19,0.01561828339310891
2.195,0.01599825492376888
2.2,0.016374904672844817
2.205,0.01674760063016236
2.21,0.017115670108991753
2.215,0.017478394688325172
2.22,0.017835005325982475
2.225,0.01818467792489161
2.23,0.01852652965178182
2.235,0.018859616310883433
2.24,0.019182931063727184
2.245,0.019495404759284424
2.25,0.01979590809695931
2.255,0.02008325578980381
2.2600000000000002,0.020356212829214786
2.265,0.0206135028785518
2.27,0.020853818745474543
2.275,0.021075834805535217
2.2800000000000002,0.021278221176874456
2.285,0.02145965938159484
2.29,0.021618859176719886
2.295,0.021754576198893996
2.3000000000000003,0.02186563004342027
2.305,0.02195092239009762
2.31,0.022009454794820128
2.315,0.02204034578539363
2.32,0.02204284693016935
2.325,0.02201635758608727
2.33,0.021960438075500986
2.335,0.021874821085641982
2.34,0.021759421127864026
2.345,0.02161434193336965
2.35,0.02143988169600993
2.355,0.021236536099727116
2.36,0.02100499908789163
2.365,0.02074616134465767
2.37,0.020461106465882985
2.375,0.020151104801228507
2.38,0.01981760495240287
2.3850000000000002,0.019462222918030677
2.39,0.01908672888610518
2.395,0.01869303169279701
2.4,0.018283160993172735
2.4050000000000002,0.017859247225759847
2.41,0.017423499498433487
2.415,0.016978181576204725
2.42,0.01652558620962965
2.4250000000000003,0.016068008102445637
2.43,0.015607715875025538
2.435,0.015146923432624136
2.44,0.014687761190835043
2.445,0.014232247642449194
2.45,0.013782261768120441
2.455,0.013339516796930712
2.46,0.012905535812024013
2.465,0.012481629671656903
2.47,0.012068877678623984
2.475,0.011668111382792192
2.48,0.011279901844406708
2.485,0.010904550621956414
2.49,0.010542084679710174
2.495,0.010192255338445255
2.5,0.00985454132008543
2.505,0.00952815586448494
2.5100000000000002,0.00921205782577406
2.515,0.00890496658767269
2.52,0.008605380572991891
2.525,0.008311599063021789
2.5300000000000002,0.008021746988393384
2.535,0.0077338023049746355
2.54,0.007445625527031247
2.545,0.007154990955876437
2.5500000000000003,0.00685961911617289
2.555,0.0065572098945645115
2.56,0.006245475867004437
2.565,0.005922175302498268
2.57,0.005585144342299762
2.575,0.0052323278748603146
2.58,0.004861808657608955
2.585,0.004471834275991923
2.59,0.0040608415766758225
2.595,0.003627478263463087
2.6,0.003170621399002193
2.605,0.0026893926103252063
2.61,0.0021831698492732103
2.615,0.0016515956079822336
2.62,0.0010945815334520435
2.625,0.0005123094232654682
2.63,-9.477138286727611e-05
2.6350000000000002,-0.0007259501726913293
2.64,-0.0013802645230202035
2.645,-0.0020565133582861423
2.65,-0.002753273282643287
2.6550000000000002,-0.003468918029668201
2.66,-0.004201640835504601
2.665,-0.004949479497050724
2.67,-0.005710343827063601
2.6750000000000003,-0.006482045164442647
2.68,-0.007262327542857851
2.685,-0.008048900067317998
2.69,-0.00883946999948532
2.695,-0.00963177601175844
2.7,-0.01042362104022883
2.705,-0.011212904149869736
2.71,-0.011997650823328196
2.715,-0.012776041098299301
2.72,-0.013546435007757329
2.725,-0.0143073948217583
2.73,-0.015057703648005141
2.735,-0.015796380019362576
2.74,-0.016522688178153767
2.745,-0.01723614385723004
2.75,-0.01793651545410922
2.755,-0.01862382059435409
2.7600000000000002,-0.019298318181044792
2.765,-0.019960496125814912
2.77,-0.020611055050538868
2.775,-0.021250888334555636
2.7800000000000002,-0.021881058957716994
2.785,-0.0225027736524027
2.79,-0.023117354926381034
2.795,-0.023726211552094537
2.8000000000000003,-0.02433080813642799
2.805,-0.02493263438872133
2.81,-0.025533174694728582
2.815,-0.026133878581795097
2.82,-0.026736132627314373
2.825,-0.02734123432015562
2.83,-0.02795036833470905
2.835,-0.028564585620725173
2.84,-0.029184785650177566
2.845,-0.02981170209559889
2.85,-0.030445892143107608
2.855,-0.031087729567875515
2.86,-0.031737401620261216
2.865,-0.032394909687570625
2.87,-0.033060073610033665
2.875,-0.03373253944123328
2.88,-0.03441179035464882
2.8850000000000002,-0.03509716031164633
2.89,-0.035787850025314163
2.895,-0.036482944682721175
2.9,-0.03718143282950231
2.9050000000000002,-0.03788222577919854
2.91,-0.03858417688915927
2.915,-0.039286100047944056
2.92,-0.039986786747811226
2.9250000000000003,-0.04068502117040495
2.93,-0.04137959279296139
2.935,-0.042069306123470394
2.94,-0.04275298729202823
2.945,-0.043429487356692914
2.95,-0.04409768231928182
2.955,-0.04475646998314078
2.96,-0.045404763914476995
2.965,-0.04604148488545887
2.97,-0.046665550275964696
2.975,-0.0472758619878865
2.98,-0.04787129347894937
2.985,-0.04845067655123302
2.99,-0.049012788533499
2.995,-0.04955634047768867
3,-0.05007996695113384
3.005,-0.050582217950204206
3.0100000000000002,-0.05106155339164469
3.015,-0.051516340557972815
3.02,-0.05194485478595133
3.025,-0.052345283594793846
3.0300000000000002,-0.052715734355375785
3.035,-0.05305424550481592
3.04,-0.05335880121360526
3.045,-0.05362734931609222
3.0500000000000003,-0.053857822220858574
3.055,-0.054048160426891007
3.06,-0.05419633818650031
3.065,-0.05430039077911986
3.0700000000000003,-0.05435844279429642
3.075,-0.054368736770356016
3.08,-0.054329661500327066
3.085,-0.0542397793011896
3.09,-0.054097851548190704
3.095,-0.05390286180360558
3.1,-0.053654035918623014
3.105,-0.05335085855648604
3.11,-0.052993085672037796
3.115,-0.05258075258383735
3.12,-0.05211417738581767
3.125,-0.051593959561415555
3.13,-0.05102097377957141
3.1350000000000002,-0.05039635896457419
3.14,-0.04972150283659872
3.145,-0.048998022213874816
3.15,-0.04822773944861566
3.1550000000000002,-0.047412655435882044
3.16,-0.04655491968720461
3.165,-0.04565679799948847
3.17,-0.04472063827560899
3.1750000000000003,-0.04374883506767717
3.18,-0.042743793418921545
3.185,-0.04170789257717787
3.19,-0.04064345014358987
3.1950000000000003,-0.039552687205402864
3.2,-0.0384376949823709
3.205,-0.03730040349245204
3.21,-0.036142552713899725
3.215,-0.03496566668693417
3.22,-0.033771030958137695
3.225,-0.03255967372375914
3.23,-0.03133235097372609
3.235,-0.030089535876188237
3.24,-0.028831412573313217
3.245,-0.02755787448385043
3.25,-0.026268527128367358
3.255,-0.024962695411210756
3.2600000000000002,-0.023639435211741503
3.265,-0.022297549058955347
3.27,-0.020935605590973815
3.275,-0.019551962436522217
3.2800000000000002,-0.018144792101528747
3.285,-0.01671211040190302
3.29,-0.015251806954370483
3.295,-0.013761677221225075
3.3000000000000003,-0.012239455601720317
3.305,-0.010682849071599925
3.31,-0.009089570891574123
3.315,-0.007457373933511669
3.3200000000000003,-0.005784083207646208
3.325,-0.00406762721289173
3.33,-0.002306067773160487
3.335,-0.0004976280632064618
3.34,0.0013592814339377418
3.345,0.00326603926098679
3.35,0.005223791804887137
3.355,0.007233434768230523
3.36,0.009295597443256158
3.365,0.011410629924753906
3.37,0.013578593389519712
3.375,0.015799253564903477
3.38,0.01807207750587173
3.3850000000000002,0.020396233797125275
3.39,0.02277059629220088
3.395,0.025193751493204717
3.4,0.02766400966099561
3.4050000000000002,0.03017941972465794
3.41,0.03273778802965907
3.415,0.035336700925297046
3.42,0.03797355114344011
