# Strata Output: Acceleration Time Series
# Project:TST site
# Time (s),S-1-M-CHICHI03\TCU138-W.AT2,
0,1.1789584339024527e-07
0.004,1.1862473097003458e-07
0.008,1.1936451124802563e-07
0.012,1.2011537370285957e-07
0.016,1.2087751169548862e-07
0.02,1.2165112262443393e-07
0.024,1.2243640796221473e-07
0.028,1.2323357331346155e-07
0.032,1.240428286317567e-07
0.036000000000000004,1.2486438812856123e-07
0.04,1.256984706453132e-07
0.044,1.2654529952679274e-07
0.048,1.2740510281194177e-07
0.052000000000000005,1.28278113481062e-07
0.056,1.2916456932310864e-07
0.06,1.3006471325921626e-07
0.064,1.309787933878017e-07
0.068,1.3190706311640293e-07
0.07200000000000001,1.3284978130913068e-07
0.076,1.3380721244452816e-07
0.08,1.347796266832254e-07
0.084,1.3576730012988232e-07
0.088,1.3677051479068817e-07
0.092,1.3778955897755202e-07
0.096,1.3882472728555137e-07
0.1,1.3987632074298572e-07
0.10400000000000001,1.4094464715658657e-07
0.108,1.420300210959049e-07
0.112,1.4313276414311128e-07
0.116,1.4425320507947879e-07
0.12,1.4539168009962123e-07
0.124,1.4654853294680162e-07
0.128,1.4772411512023162e-07
0.132,1.4891878610925929e-07
0.136,1.5013291365010802e-07
0.14,1.5136687384383783e-07
0.14400000000000002,1.52621051400074e-07
0.148,1.5389583989981762e-07
0.152,1.5519164208601188e-07
0.156,1.5650887001186084e-07
0.16,1.5784794534353868e-07
0.164,1.5920929960565313e-07
0.168,1.6059337446140325e-07
0.17200000000000001,1.6200062203090122e-07
0.176,1.634315050169398e-07
0.18,1.6488649729479826e-07
0.184,1.6636608391224247e-07
0.188,1.678707616177481e-07
0.192,1.694010390079522e-07
0.196,1.7095743705414167e-07
0.2,1.7254048937026818e-07
0.20400000000000001,1.7415074248443228e-07
0.20800000000000002,1.757887563471574e-07
0.212,1.7745510464710956e-07
0.216,1.7915037509298995e-07
0.22,1.8087517016813953e-07
0.224,1.826301071452843e-07
0.228,1.8441581876654682e-07
0.232,1.862329536337591e-07
0.23600000000000002,1.8808217667943986e-07
0.24,1.899641695388929e-07
0.244,1.9187963137073113e-07
0.248,1.9382927891498996e-07
0.252,1.9581384743941884e-07
0.256,1.978340910187718e-07
0.26,1.998907832122169e-07
0.264,2.0198471771212302e-07
0.268,2.0411670884279252e-07
0.272,2.0628759222572796e-07
0.276,2.08498225482195e-07
0.28,2.1074948880915067e-07
0.28400000000000003,2.1304228587609527e-07
0.28800000000000003,2.1537754436630623e-07
0.292,2.1775621673664692e-07
0.296,2.201792811582205e-07
0.3,2.2264774217860056e-07
0.304,2.251626315367175e-07
0.308,2.2772500927351524e-07
0.312,2.303359643052773e-07
0.316,2.3299661561147873e-07
0.32,2.3570811310605098e-07
0.324,2.384716386114291e-07
0.328,2.412884069566317e-07
0.332,2.441596671521025e-07
0.336,2.47086703278756e-07
0.34,2.5007083587011843e-07
0.34400000000000003,2.531134230316582e-07
0.34800000000000003,2.562158617101697e-07
0.352,2.5937958904599016e-07
0.356,2.626060836818487e-07
0.36,2.6589686723651376e-07
0.364,2.692535056960415e-07
0.368,2.726776109065052e-07
0.372,2.7617084244229244e-07
0.376,2.7973490882474846e-07
0.38,2.8337156961251796e-07
0.384,2.870826370495322e-07
0.388,2.9086997779713056e-07
0.392,2.947355151293531e-07
0.396,2.986812307717473e-07
0.4,3.0270916695267885e-07
0.404,3.0682142877990245e-07
0.40800000000000003,3.110201864254463e-07
0.41200000000000003,3.153076773226393e-07
0.41600000000000004,3.1968620904835413e-07
0.42,3.2415816146886006e-07
0.424,3.287259896333419e-07
0.428,3.333922265529269e-07
0.432,3.3815948605517217e-07
0.436,3.4303046609738673e-07
0.44,3.4800795141468667e-07
0.444,3.53094817379755e-07
0.448,3.5829403316437514e-07
0.452,3.636086653597989e-07
0.456,3.6904188184951647e-07
0.46,3.7459695585549915e-07
0.464,3.802772696756609e-07
0.468,3.8608631934245825e-07
0.47200000000000003,3.9202771900566933e-07
0.47600000000000003,3.9810520549124695e-07
0.48,4.043226434751315e-07
0.484,4.1068403050093854e-07
0.488,4.1719350225698767e-07
0.492,4.238553383078288e-07
0.496,4.3067396787867775e-07
0.5,4.376539762721582e-07
0.504,4.4480011095718126e-07
0.508,4.5211728856942183e-07
0.512,4.596106019126628e-07
0.516,4.672853272923384e-07
0.52,4.751469323547496e-07
0.524,4.832010842576117e-07
0.528,4.914536580175439e-07
0.532,4.999107456928274e-07
0.536,5.085786654907045e-07
0.54,5.174639717654567e-07
0.544,5.265734652003643e-07
0.548,5.359142037859043e-07
0.552,5.454935138924896e-07
0.556,5.55319002351084e-07
0.56,5.653985689440784e-07
0.5640000000000001,5.757404192986226e-07
0.5680000000000001,5.8635307889712e-07
0.5720000000000001,5.972454072863474e-07
0.5760000000000001,6.084266133473583e-07
0.58,6.199062710996813e-07
0.584,6.316943364583151e-07
0.588,6.43801164737522e-07
0.592,6.562375289495586e-07
0.596,6.690146392435532e-07
0.6,6.821441630165891e-07
0.604,6.956382463045795e-07
0.608,7.095095360127487e-07
0.612,7.237712033083786e-07
0.616,7.38436968165411e-07
0.62,7.535211251727957e-07
0.624,7.690385703710971e-07
0.628,7.850048296650957e-07
0.632,8.014360882486017e-07
0.636,8.18349221709348e-07
0.64,8.357618284227822e-07
0.644,8.536922632794287e-07
0.648,8.721596731656208e-07
0.652,8.911840338116298e-07
0.656,9.107861882097183e-07
0.66,9.309878865951797e-07
0.664,9.518118280849058e-07
0.668,9.73281703630007e-07
0.672,9.954222408436698e-07
0.676,1.0182592499487766e-06
0.68,1.0418196713119315e-06
0.684,1.0661316243279682e-06
0.6880000000000001,1.0912244571813594e-06
0.6920000000000001,1.117128797963748e-06
0.6960000000000001,1.1438766061280132e-06
0.7000000000000001,1.1715012247715353e-06
0.704,1.200037432731243e-06
0.708,1.2295214964817683e-06
0.712,1.2599912212304269e-06
0.716,1.2914860005003844e-06
0.72,1.3240468633979685e-06
0.724,1.3577165190970503e-06
0.728,1.3925393970447304e-06
0.732,1.4285616818726487e-06
0.736,1.4658313419201752e-06
0.74,1.5043981492010773e-06
0.744,1.5443136898135952e-06
0.748,1.5856313617677012e-06
0.752,1.62840635898054e-06
0.756,1.672695637858717e-06
0.76,1.7185578643762203e-06
0.764,1.7660533380666455e-06
0.768,1.8152438894099647e-06
0.772,1.866192747402869e-06
0.776,1.9189643728388325e-06
0.78,1.9736242537035488e-06
0.784,2.030238658232709e-06
0.788,2.0888743417272523e-06
0.792,2.149598203197816e-06
0.796,2.2124768886221986e-06
0.8,2.277576337564973e-06
0.804,2.3449612719883034e-06
0.808,2.41469462575604e-06
0.812,2.486836916861576e-06
0.8160000000000001,2.561445564565231e-06
0.8200000000000001,2.6385741569124636e-06
0.8240000000000001,2.7182716770975116e-06
0.8280000000000001,2.800581698749454e-06
0.8320000000000001,2.885541564710652e-06
0.836,2.973181566078859e-06
0.84,3.063524140934984e-06
0.844,3.1565831155455462e-06
0.848,3.2523630110856475e-06
0.852,3.35085844073062e-06
0.856,3.452053620859527e-06
0.86,3.5559220175271872e-06
0.864,3.6624261475573167e-06
0.868,3.771517546778003e-06
0.872,3.883136913058332e-06
0.876,3.997214423551147e-06
0.88,4.113670218708654e-06
0.884,4.23241503690672e-06
0.888,4.353350975531376e-06
0.892,4.476372348559322e-06
0.896,4.601366604047966e-06
0.9,4.728215260710027e-06
0.904,4.856794820233232e-06
0.908,4.98697761238816e-06
0.912,5.118632528235133e-06
0.916,5.251625602627016e-06
0.92,5.385820409389632e-06
0.924,5.521078239647865e-06
0.928,5.657258042055765e-06
0.932,5.794216111785782e-06
0.936,5.931805527068025e-06
0.9400000000000001,6.0698753437494845e-06
0.9440000000000001,6.208269570504401e-06
0.9480000000000001,6.346825961726937e-06
0.9520000000000001,6.485374676635026e-06
0.9560000000000001,6.623736865184521e-06
0.96,6.761723250403721e-06
0.964,6.89913278294098e-06
0.968,7.035751444799397e-06
0.972,7.171351278070345e-06
0.976,7.30568970421584e-06
0.98,7.438509188310205e-06
0.984,7.569537285095245e-06
0.988,7.698487081617496e-06
0.992,7.825058030600655e-06
0.996,7.94893714497877e-06
1,8.06980050339162e-06
1.004,8.187314999615177e-06
1.008,8.301140258212406e-06
1.012,8.41093063250796e-06
1.016,8.516337205446003e-06
1.02,8.61700972212333e-06
1.024,8.712598401499e-06
1.028,8.802755596916762e-06
1.032,8.887137301574405e-06
1.036,8.96540452559496e-06
1.04,9.037224600190078e-06
1.044,9.102272491659718e-06
1.048,9.160232232761491e-06
1.052,9.210798594765522e-06
1.056,9.253679134557811e-06
1.06,9.288596751221061e-06
1.064,9.315292874865381e-06
1.068,9.333531391839137e-06
1.072,9.343103375281707e-06
1.076,9.343832648043833e-06
1.08,9.33558215178276e-06
1.084,9.318261036053048e-06
1.088,9.291832318352565e-06
1.092,9.256320901609556e-06
1.096,9.21182167862055e-06
1.1,9.158507403679273e-06
1.104,9.096635978868661e-06
1.108,9.026556787729476e-06
1.112,8.948715716932619e-06
1.116,8.863658535750097e-06
1.12,8.772032356441306e-06
1.124,8.674584969735103e-06
1.1280000000000001,8.572161934111062e-06
1.1320000000000001,8.46570139290043e-06
1.1360000000000001,8.35622668636795e-06
1.1400000000000001,8.244836914627494e-06
1.1440000000000001,8.132695684333452e-06
1.1480000000000001,8.021018327859407e-06
1.1520000000000001,7.91105792323494e-06
1.156,7.804090455551939e-06
1.16,7.701399452344662e-06
1.164,7.604260400308972e-06
1.168,7.513925203230151e-06
1.172,7.431606889005078e-06
1.176,7.358464711971243e-06
1.18,7.295589735233742e-06
1.184,7.2439909237946175e-06
1.188,7.204581733869919e-06
1.192,7.178167154358104e-06
1.196,7.16543114715432e-06
1.2,7.166924443155869e-06
1.204,7.183052686163853e-06
1.208,7.2140649736555095e-06
1.212,7.26004292107419e-06
1.216,7.3208904708276766e-06
1.22,7.39632477205518e-06
1.224,7.485868564222441e-06
1.228,7.588844597808669e-06
1.232,7.704372708147022e-06
1.236,7.831370210716904e-06
1.24,7.968556299949505e-06
1.244,8.114461096110404e-06
1.248,8.267439889578938e-06
1.252,8.425692974082637e-06
1.256,8.587291239422664e-06
1.26,8.750207413540459e-06
1.264,8.912352514450366e-06
1.268,9.071616710175291e-06
1.272,9.22591341182051e-06
1.276,9.373225066647433e-06
1.28,9.5116488108516e-06
1.284,9.639439909556469e-06
1.288,9.75505079622098e-06
1.292,9.857163542028705e-06
1.296,9.94471376399425e-06
1.3,1.0016904319748141e-05
1.304,1.0073207634544334e-05
1.308,1.0113356137621709e-05
1.312,1.0137321015822245e-05
1.316,1.0145280271864406e-05
1.32,1.013757784661877e-05
1.324,1.011467626625331e-05
1.328,1.0077105845840698e-05
1.332,1.0025413868044566e-05
1.336,9.96011731541153e-06
1.34,9.881662642879279e-06
1.344,9.790395724379307e-06
1.348,9.68654450318394e-06
1.352,9.570216053293022e-06
1.356,9.441408760967027e-06
1.36,9.30003923094217e-06
1.364,9.14598237732542e-06
1.368,8.979122066253833e-06
1.372,8.799408713739453e-06
1.3760000000000001,8.606919494750953e-06
1.3800000000000001,8.401916357527471e-06
1.3840000000000001,8.184896919904836e-06
1.3880000000000001,7.95663357957139e-06
1.3920000000000001,7.71819680981961e-06
1.3960000000000001,7.4709596011320825e-06
1.4000000000000001,7.2165812982333705e-06
1.4040000000000001,6.956970570281959e-06
1.408,6.694228838442532e-06
1.412,6.430577029225932e-06
1.416,6.16826989958969e-06
1.42,5.909503259433598e-06
1.424,5.656320103447311e-06
1.428,5.4105218805306025e-06
1.432,5.173590854049342e-06
1.436,4.94662875352104e-06
1.44,4.7303157507595345e-06
1.444,4.5248923141539494e-06
1.448,4.330164831368921e-06
1.452,4.145534188660588e-06
1.456,3.970044904989177e-06
1.46,3.8024510692998084e-06
1.464,3.6412943328781216e-06
1.468,3.484988632604735e-06
1.472,3.3319061993127952e-06
1.476,3.180459720720689e-06
1.48,3.0291762315508882e-06
1.484,2.8767593037967798e-06
1.488,2.7221373019948354e-06
1.492,2.5644967281937623e-06
1.496,2.4033008922949472e-06
1.5,2.2382951989631256e-06
1.504,2.0695011589940453e-06
1.508,1.8972017590018835e-06
1.512,1.7219210323146558e-06
1.516,1.5444005852963545e-06
1.52,1.3655754744835193e-06
1.524,1.1865512760250094e-06
1.528,1.0085835032963806e-06
1.532,8.330598075875147e-07
1.536,6.614847089781125e-07
1.54,4.95466031538237e-07
1.544,3.3670180716093333e-07
1.548,1.8696620238991372e-07
1.552,4.809302294877001e-08
1.556,-7.804444690908593e-08
1.56,-1.8955814184850161e-07
1.564,-2.8457482118798205e-07
1.568,-3.6127038070915965e-07
1.572,-4.1790807296045247e-07
1.576,-4.528792750021466e-07
1.58,-4.64744955924184e-07
1.584,-4.522756220313425e-07
1.588,-4.1448728712727936e-07
1.592,-3.5067094506653385e-07
1.596,-2.604131267420634e-07
1.6,-1.436054088175866e-07
1.604,-4.4120275139358564e-10
1.608,1.686012216052754e-07
1.612,3.6278975540708503e-07
1.616,5.811829227615632e-07
1.62,8.22686290325713e-07
1.624,1.0861183894465886e-06
1.6280000000000001,1.3702828981356689e-06
1.6320000000000001,1.6740431610029178e-06
1.6360000000000001,1.996394689207705e-06
1.6400000000000001,2.3365311305536453e-06
1.6440000000000001,2.693899378510977e-06
1.6480000000000001,3.0682399951905604e-06
1.6520000000000001,3.4596099478609705e-06
1.6560000000000001,3.868385733880237e-06
1.6600000000000001,4.29524622413365e-06
1.6640000000000001,4.741135879892116e-06
1.668,5.207210283812978e-06
1.672,5.694767060472603e-06
1.676,6.205166146799253e-06
1.68,6.739743934398809e-06
1.684,7.299726002680932e-06
1.688,7.886142981397303e-06
1.692,8.499753557724806e-06
1.696,9.140977831562754e-06
1.7,9.80984321169299e-06
1.704,1.0505943938169467e-05
1.708,1.1228414221177347e-05
1.712,1.1975914010436688e-05
1.716,1.274662564122129e-05
1.72,1.3538259109981084e-05
1.724,1.4348063549935178e-05
1.728,1.5172842603511722e-05
1.732,1.60089717939989e-05
1.736,1.685241661501495e-05
1.74,1.769875080140817e-05
1.744,1.8543175015235863e-05
1.748,1.938053688107589e-05
1.752,2.02053538426445e-05
1.756,2.1011840623102942e-05
1.76,2.1793943114274417e-05
1.764,2.2545380282906604e-05
1.768,2.325969519708631e-05
1.772,2.3930315582949082e-05
1.776,2.455062350550974e-05
1.78,2.511403290381777e-05
1.784,2.5614072897594945e-05
1.788,2.6044474101972812e-05
1.792,2.6399254708918524e-05
1.796,2.6672802872798922e-05
1.8,2.685995199361158e-05
1.804,2.6956045823127286e-05
1.808,2.695699089176407e-05
1.812,2.6859294515007937e-05
1.816,2.666008750362806e-05
1.82,2.6357131596225736e-05
1.824,2.594881245962298e-05
1.828,2.543411979421236e-05
1.832,2.4812616578466837e-05
1.836,2.408439975880649e-05
1.84,2.32500547442655e-05
1.844,2.2310605923002804e-05
1.848,2.1267465141517915e-05
1.852,2.012237973738755e-05
1.856,1.8877381373155203e-05
1.86,1.7534736636870936e-05
1.864,1.609690020651299e-05
1.868,1.456647133064558e-05
1.872,1.2946154453260807e-05
1.8760000000000001,1.1238724965696863e-05
1.8800000000000001,9.447001247168218e-06
1.8840000000000001,7.573824291833115e-06
1.8880000000000001,5.622046249899837e-06
1.8920000000000001,3.594529078725686e-06
1.8960000000000001,1.4941541774581548e-06
1.9000000000000001,-6.761566383688815e-07
1.9040000000000001,-2.913409155082413e-06
1.9080000000000001,-5.214494913145794e-06
1.9120000000000001,-7.576141495034566e-06
1.9160000000000001,-9.994857777688818e-06
1.92,-1.2466877695435693e-05
1.924,-1.4988106586413875e-05
1.928,-1.7554074477592762e-05
1.932,-2.0159900661904684e-05
1.936,-2.2800273619895342e-05
1.94,-2.5469449746287585e-05
1.944,-2.81612734864182e-05
1.948,-3.0869220409244884e-05
1.952,-3.358646349982208e-05
1.956,-3.6305961605161e-05
1.96,-3.902056758015674e-05
1.964,-4.1723152330359095e-05
1.968,-4.4406739705528995e-05
1.972,-4.706464614115818e-05
1.976,-4.969061815025192e-05
1.98,-5.227896029963479e-05
1.984,-5.482464623028335e-05
1.988,-5.7323405631356554e-05
1.992,-5.9771780877940584e-05
1.996,-6.216714827297115e-05
2,-6.450770044837272e-05
2.004,-6.67923884022565e-05
2.008,-6.9020823764238e-05
2.012,-7.119314406907947e-05
2.016,-7.330984593380876e-05
2.02,-7.537159295016475e-05
2.024,-7.737900668777825e-05
2.028,-7.933245036893487e-05
2.032,-8.123181543503584e-05
2.036,-8.307632135131416e-05
2.04,-8.486433856917998e-05
2.044,-8.659324361643951e-05
2.048,-8.825931385326698e-05
2.052,-8.985766759965688e-05
2.056,-9.138225319635212e-05
2.06,-9.282588822872442e-05
2.064,-9.418034774552936e-05
2.068,-9.543649798850247e-05
2.072,-9.658447005362685e-05
2.076,-9.761386616768626e-05
2.08,-9.851398999971827e-05
2.084,-9.927409172174977e-05
2.088,-9.988361842665538e-05
2.092,-0.00010033246099961205
2.096,-0.00010061118955858746
2.1,-0.00010071127102331576
2.104,-0.00010062526409148653
2.108,-0.00010034698872525109
2.112,-9.987166900366341e-05
2.116,-9.919604971738181e-05
2.12,-9.831848824320132e-05
2.124,-9.723902395753638e-05
2.128,-9.595942770417284e-05
2.132,-9.448323364926313e-05
2.136,-9.281575531589407e-05
2.14,-9.096408679976714e-05
2.144,-8.893708926350721e-05
2.148,-8.674536192286152e-05
2.152,-8.440119599799677e-05
2.156,-8.191850960558859e-05
2.16,-7.931276137402912e-05
2.164,-7.660084070326291e-05
2.168,-7.380093305112664e-05
2.172,-7.093235936623386e-05
2.176,-6.801538974238771e-05
2.18,-6.507103245476754e-05
2.184,-6.21208006730288e-05
2.188,-5.918646024248072e-05
2.192,-5.6289762907731966e-05
2.196,-5.345217015988415e-05
2.2,-5.0694573474290766e-05
2.204,-4.803701704074848e-05
2.208,-4.549842916821397e-05
2.212,-4.309636837917564e-05
2.216,-4.084678982375733e-05
2.22,-3.876383708248194e-05
2.224,-3.6859663735609715e-05
2.228,-3.514428831117734e-05
2.232,-3.3625485429548986e-05
2.236,-3.230871517757995e-05
2.24,-3.1197091998305295e-05
2.244,-3.0291393678759454e-05
2.248,-2.9590110356899315e-05
2.2520000000000002,-2.9089532829376543e-05
2.2560000000000002,-2.8783878802737194e-05
2.2600000000000002,-2.8665455067298793e-05
2.2640000000000002,-2.8724852864141907e-05
2.2680000000000002,-2.8951172956170027e-05
2.2720000000000002,-2.9332276102779867e-05
2.2760000000000002,-2.9855053795218132e-05
2.2800000000000002,-3.0505713267725438e-05
2.2840000000000003,-3.1270069998028014e-05
2.2880000000000003,-3.2133840208803044e-05
2.2920000000000003,-3.308292533567554e-05
2.2960000000000003,-3.410368010248088e-05
2.3000000000000003,-3.518315580687909e-05
2.3040000000000003,-3.6309310722092134e-05
2.308,-3.747118021196613e-05
2.312,-3.8659000262741675e-05
2.316,-3.986427965697366e-05
2.32,-4.107981792438022e-05
2.324,-4.229966844316828e-05
2.328,-4.351904852899227e-05
2.332,-4.473420092006902e-05
2.336,-4.5942213583064675e-05
2.34,-4.714080706122241e-05
2.344,-4.832810049363055e-05
2.348,-4.950236879115917e-05
2.352,-5.0661804136000065e-05
2.356,-5.18042948914197e-05
2.36,-5.292723413485246e-05
2.364,-5.402736839673167e-05
2.368,-5.51006948848199e-05
2.372,-5.61424126554394e-05
2.376,-5.7146930045868334e-05
2.38,-5.810792742569962e-05
2.384,-5.901847119062211e-05
2.388,-5.987117211648571e-05
2.392,-6.0658378901415364e-05
2.396,-6.13723960794643e-05
2.4,-6.200571456622878e-05
2.404,-6.255124290853886e-05
2.408,-6.30025278138163e-05
2.412,-6.335395363376618e-05
2.416,-6.360091204543222e-05
2.42,-6.373993506405912e-05
2.424,-6.376878658948988e-05
2.428,-6.368650979456052e-05
2.432,-6.349342970337679e-05
2.436,-6.319111219306368e-05
2.44,-6.278228233528216e-05
2.444,-6.22707064388387e-05
2.448,-6.166104335496001e-05
2.452,-6.095867155527376e-05
2.456,-6.016949918742254e-05
2.46,-5.9299764758810575e-05
2.464,-5.835583628420615e-05
2.468,-5.7344016656940216e-05
2.472,-5.6270362666068314e-05
2.476,-5.5140524480420646e-05
2.48,-5.395961157321413e-05
2.484,-5.2732089991615406e-05
2.488,-5.146171461258851e-05
2.492,-5.015149862517201e-05
2.496,-4.8803720981242936e-05
2.5,-4.741997102787798e-05
2.504,-4.600122802792417e-05
2.508,-4.4547971850741896e-05
2.512,-4.3060319827682395e-05
2.516,-4.15381836652655e-05
2.52,-3.9981439438588744e-05
2.524,-3.8390103088344485e-05
2.528,-3.676450354508131e-05
2.532,-3.510544562789341e-05
2.536,-3.3414355225498636e-05
2.54,-3.169339995817818e-05
2.544,-2.9945579532782144e-05
2.548,-2.8174781300851017e-05
2.552,-2.638579806999045e-05
2.556,-2.4584306933209684e-05
2.56,-2.27768096921518e-05
2.564,-2.097053726305584e-05
2.568,-1.917332217284659e-05
2.572,-1.73934447636218e-05
2.576,-1.563945993782764e-05
2.58,-1.3920012098770128e-05
2.584,-1.224364631020567e-05
2.588,-1.0618623581006892e-05
2.592,-9.052747573300878e-06
2.596,-7.5532089810671174e-06
2.6,-6.126452406636568e-06
2.604,-4.778068890149641e-06
2.608,-3.512715458693214e-06
2.612,-2.3340613063321896e-06
2.616,-1.2447586371453205e-06
2.62,-2.4643492670531623e-07
2.624,6.602975279275467e-07
2.628,1.4758193441771315e-06
2.632,2.201473651247649e-06
2.636,2.8395317320022747e-06
2.64,3.3931581813812718e-06
