# Strata Output: Acceleration Time Series
# Project:TST site
# Time (s),S-1-M-CHICHI06\TCU076-E.AT2,
0,7.388137075510768e-08
0.005,7.533650993062593e-08
0.01,7.68330213095504e-08
0.015,7.837238539293271e-08
0.02,7.995614786969692e-08
0.025,8.158592226556233e-08
0.03,8.326339427334692e-08
0.035,8.499032480217752e-08
0.04,8.67685548208378e-08
0.045,8.860000883458777e-08
0.05,9.048670029012847e-08
0.055,9.243073556416491e-08
0.06,9.443432004968336e-08
0.065,9.64997627486318e-08
0.07,9.862948303907619e-08
0.075,1.0082601600383726e-07
0.08,1.030920200918968e-07
0.085,1.0543028319990445e-07
0.09,1.0784373132324371e-07
0.095,1.1033543563782365e-07
0.1,1.1290862224727328e-07
0.105,1.1556668036888486e-07
0.11,1.1831317342933885e-07
0.115,1.211518485484372e-07
0.12,1.2408664916246917e-07
0.125,1.2712172605380023e-07
0.13,1.302614517846385e-07
0.135,1.3351043347609214e-07
0.14,1.368735294120753e-07
0.145,1.4035586397571064e-07
0.15,1.439628466562609e-07
0.155,1.4770018957677502e-07
0.16,1.5157392943920724e-07
0.165,1.5559044805486962e-07
0.17,1.5975649779022324e-07
0.17500000000000002,1.6407922570642285e-07
0.18,1.6856620312160685e-07
0.185,1.732254541245471e-07
0.19,1.7806549008653895e-07
0.195,1.830953434067599e-07
0.2,1.8832460795105925e-07
0.20500000000000002,1.9376347916158385e-07
0.21,1.9942280164349545e-07
0.215,2.0531411699270653e-07
0.22,2.1144972009578865e-07
0.225,2.178427163467904e-07
0.23,2.2450708855573883e-07
0.23500000000000001,2.3145776570884956e-07
0.24,2.3871070294415804e-07
0.245,2.4628296443573975e-07
0.25,2.541928194867657e-07
0.255,2.624598431519206e-07
0.26,2.7110503208874224e-07
0.265,2.80150927281067e-07
0.27,2.8962175487429013e-07
0.275,2.995435763989495e-07
0.28,3.099444609836637e-07
0.28500000000000003,3.2085467052298553e-07
0.29,3.3230687160076253e-07
0.295,3.443363651068103e-07
0.3,3.5698134879077956e-07
0.305,3.7028320403449847e-07
0.31,3.8428682355771696e-07
0.315,3.9904097207839315e-07
0.32,4.1459869862870794e-07
0.325,4.310177936989366e-07
0.33,4.483613124907641e-07
0.335,4.6669815907197176e-07
0.34,4.861037565890206e-07
0.34500000000000003,5.066608006093184e-07
0.35000000000000003,5.284601258237625e-07
0.355,5.516016872379969e-07
0.36,5.761956929373009e-07
0.365,6.023638956046967e-07
0.37,6.302410899921504e-07
0.375,6.599768328021881e-07
0.38,6.917374467524524e-07
0.385,7.257083399262523e-07
0.39,7.620967238129828e-07
0.395,8.011347844372825e-07
0.4,8.430834224331477e-07
0.405,8.882366538811577e-07
0.41000000000000003,9.369268384627555e-07
0.41500000000000004,9.895308866586319e-07
0.42,1.046477693553382e-06
0.425,1.1082570489431833e-06
0.43,1.1754304027380371e-06
0.435,1.248643898522761e-06
0.44,1.3286442708430806e-06
0.445,1.4162982934129973e-06
0.45,1.5126167364270504e-06
0.455,1.6187839822590993e-06
0.46,1.7361948636302568e-06
0.465,1.8665006414792707e-06
0.47000000000000003,2.0116666682060627e-06
0.47500000000000003,2.174044851562518e-06
0.48,2.3564648818527587e-06
0.485,2.5623488263330854e-06
0.49,2.7958542743839085e-06
0.495,3.0620506710530007e-06
0.5,3.3671309180188114e-06
0.505,3.7186524245361632e-06
0.51,4.1257835746162515e-06
0.515,4.599492335236421e-06
0.52,5.1525379384738095e-06
0.525,5.798994845676531e-06
0.53,6.552853563979328e-06
0.535,7.4251013789245254e-06
0.54,8.418918634071808e-06
0.545,9.523821225742215e-06
0.55,1.0711872441540932e-05
0.555,1.1940443129704708e-05
0.56,1.3162675006138634e-05
0.5650000000000001,1.4339882012379248e-05
0.5700000000000001,1.5448176272593763e-05
0.5750000000000001,1.6477773959552895e-05
0.58,1.742907050815761e-05
0.585,1.8308771554583584e-05
0.59,1.9126306680703527e-05
0.595,1.9890274804961912e-05
0.6,2.060588694205402e-05
0.605,2.127439949088706e-05
0.61,2.189417879051017e-05
0.615,2.2462157059837754e-05
0.62,2.297480886897128e-05
0.625,2.3428534036525542e-05
0.63,2.381970981341544e-05
0.635,2.4144710942464484e-05
0.64,2.4400079679955898e-05
0.645,2.4582840458264046e-05
0.65,2.4690884173095378e-05
0.655,2.4723456822708205e-05
0.66,2.468178080531339e-05
0.665,2.456954301455462e-05
0.67,2.4392821197866133e-05
0.675,2.4159380782866562e-05
0.68,2.3877688158728984e-05
0.685,2.3555900859204752e-05
0.6900000000000001,2.320094055620095e-05
0.6950000000000001,2.2817957753167087e-05
0.7000000000000001,2.2410451189321213e-05
0.705,2.198071364204925e-05
0.71,2.153008506247738e-05
0.715,2.1059137719137204e-05
0.72,2.0568296513704642e-05
0.725,2.0058739730855245e-05
0.73,1.9532668140096623e-05
0.735,1.899245645753916e-05
0.74,1.8439471594828354e-05
0.745,1.787378633466856e-05
0.75,1.7295023841562933e-05
0.755,1.6703494021669502e-05
0.76,1.6100764591738093e-05
0.765,1.5489348818764258e-05
0.77,1.4871712416681383e-05
0.775,1.4249425772322188e-05
0.78,1.3623451801498865e-05
0.785,1.2995490286299932e-05
0.79,1.2369076783342828e-05
0.795,1.1749453092917385e-05
0.8,1.1142497925041514e-05
0.805,1.0553557882067911e-05
0.81,9.986854271097318e-06
0.8150000000000001,9.445840716891778e-06
0.8200000000000001,8.934054219570297e-06
0.8250000000000001,8.455045874568812e-06
0.8300000000000001,8.010589669896761e-06
0.835,7.598512757531111e-06
0.84,7.212507224191607e-06
0.845,6.84458948816239e-06
0.85,6.4886039529083615e-06
0.855,6.14290494943131e-06
0.86,5.8112252790648965e-06
0.865,5.5009630561758976e-06
0.87,5.218915144135922e-06
0.875,4.967165373519642e-06
0.88,4.743063709234653e-06
0.885,4.543392294385945e-06
0.89,4.3678583328034e-06
0.895,4.2180054433326074e-06
0.9,4.093381828990064e-06
0.905,3.989629704849453e-06
0.91,3.900213857192502e-06
0.915,3.8195763592372075e-06
0.92,3.7448553458420016e-06
0.925,3.6751128158544387e-06
0.93,3.609103158738796e-06
0.935,3.543780869336248e-06
0.9400000000000001,3.4747957982854043e-06
0.9450000000000001,3.3978338071673646e-06
0.9500000000000001,3.309095406646128e-06
0.9550000000000001,3.2052547058334787e-06
0.96,3.0843047613696524e-06
0.965,2.9468465702724266e-06
0.97,2.7958786504488627e-06
0.975,2.634916435109986e-06
0.98,2.4666443564444867e-06
0.985,2.293393591311553e-06
0.99,2.118134503253123e-06
0.995,1.9444307794556897e-06
1,1.7755281076621284e-06
1.0050000000000001,1.6134690921395902e-06
1.01,1.4588713298963317e-06
1.0150000000000001,1.3120405885640534e-06
1.02,1.175485409567686e-06
1.025,1.0561827180177931e-06
1.03,9.648883768291085e-07
1.035,9.110084365850134e-07
1.04,8.951019691749855e-07
1.045,9.0447361705689e-07
1.05,9.163686359891003e-07
1.055,9.078033226578024e-07
1.06,8.66087819344548e-07
1.065,7.934997970473255e-07
1.07,7.032706540088123e-07
1.075,6.101113808803481e-07
1.08,5.224769543043576e-07
1.085,4.4087441781386916e-07
1.09,3.599764563614506e-07
1.095,2.711342623317038e-07
1.1,1.6604777588728256e-07
1.105,4.231027639723973e-08
1.11,-9.364124021168924e-08
1.115,-2.3029463861765862e-07
1.12,-3.5721951384648005e-07
1.125,-4.657025297374878e-07
1.1300000000000001,-5.451880562478976e-07
1.135,-5.853228037861771e-07
1.1400000000000001,-5.855825735412319e-07
1.145,-5.610535562424398e-07
1.1500000000000001,-5.356133167240063e-07
1.155,-5.287828292266495e-07
1.16,-5.486486484067327e-07
1.165,-5.957645888992495e-07
1.17,-6.7306677628493e-07
1.175,-7.918508158801055e-07
1.18,-9.669859356766645e-07
1.185,-1.2057897300553074e-06
1.19,-1.5022155185593477e-06
1.195,-1.840067585714758e-06
1.2,-2.1975557489960014e-06
1.205,-2.548020627817596e-06
1.21,-2.8610456888003173e-06
1.215,-3.1071905506854478e-06
1.22,-3.2627422354460722e-06
1.225,-3.3129537815955995e-06
1.23,-3.2573209728494194e-06
1.235,-3.1148677415436535e-06
1.24,-2.9205524364608963e-06
1.245,-2.711660435608872e-06
1.25,-2.515323358562294e-06
1.2550000000000001,-2.345667895607033e-06
1.26,-2.2067398609358686e-06
1.2650000000000001,-2.0945589701897505e-06
1.27,-1.9991166069781506e-06
1.2750000000000001,-1.9091415889134778e-06
1.28,-1.8165138505792294e-06
1.285,-1.7165128793080183e-06
1.29,-1.60651250712492e-06
1.295,-1.4866226886235416e-06
1.3,-1.35976001356482e-06
1.305,-1.2279203209302515e-06
1.31,-1.0874111966326763e-06
1.315,-9.28010692954137e-07
1.32,-7.377386209361405e-07
1.325,-5.120898571186372e-07
1.33,-2.636170352790978e-07
1.335,-2.3251033177201445e-08
1.34,1.731011270120105e-07
1.345,3.0558136312161094e-07
1.35,3.8126469768644414e-07
1.355,4.2593512120735255e-07
1.36,4.67210747690162e-07
1.365,5.245788993139842e-07
1.37,6.081333387257121e-07
1.375,7.184167865203728e-07
1.3800000000000001,8.483596244711995e-07
1.385,9.956229248830066e-07
1.3900000000000001,1.1817888353708525e-06
1.395,1.4593177642824199e-06
1.4000000000000001,1.8908559048094381e-06
1.405,2.507087073297725e-06
1.41,3.272559890616367e-06
1.415,4.093392295906928e-06
1.42,4.868948468934998e-06
1.425,5.542356685753196e-06
1.43,6.1034796198745945e-06
1.435,6.555844142448921e-06
1.44,6.8981694658244595e-06
1.445,7.135997099756184e-06
1.45,7.288239548081845e-06
1.455,7.3655545534395144e-06
1.46,7.34727536948628e-06
1.465,7.191057482999925e-06
1.47,6.866949732561813e-06
1.475,6.380991233041149e-06
1.48,5.772877667238653e-06
1.485,5.099122475273751e-06
1.49,4.414605135988395e-06
1.495,3.7552240901594446e-06
1.5,3.1234297384171367e-06
1.5050000000000001,2.4832195229180775e-06
1.51,1.7699196625708762e-06
1.5150000000000001,9.124487805666705e-07
1.52,-1.417785011304662e-07
1.5250000000000001,-1.4118494278577645e-06
1.53,-2.8839739423121282e-06
1.5350000000000001,-4.51872940162942e-06
1.54,-6.250182737195899e-06
1.545,-7.97936990080309e-06
1.55,-9.586049958121495e-06
1.555,-1.0969802334563093e-05
1.56,-1.2088255185820796e-05
1.565,-1.295151588447629e-05
1.57,-1.3586243345881301e-05
1.575,-1.4020897618145253e-05
1.58,-1.4301763682378109e-05
1.585,-1.4499090809665e-05
1.59,-1.468572653494946e-05
1.595,-1.491711300663629e-05
1.6,-1.5232427760735759e-05
1.605,-1.5659930071282628e-05
1.61,-1.6210908845664555e-05
1.615,-1.687348011913416e-05
1.62,-1.7620433036987413e-05
1.625,-1.8425626967081046e-05
1.6300000000000001,-1.9272422348566074e-05
1.635,-2.0144118204398044e-05
1.6400000000000001,-2.1003141875157468e-05
1.645,-2.178118463016813e-05
1.6500000000000001,-2.2394994244763416e-05
1.655,-2.2771133887709214e-05
1.6600000000000001,-2.2851395243264728e-05
1.665,-2.2585646090413573e-05
1.67,-2.1949096060975607e-05
1.675,-2.0986117822669825e-05
1.68,-1.982792122815839e-05
1.685,-1.8650354705230522e-05
1.69,-1.760977757003756e-05
1.695,-1.6809981792618966e-05
1.7,-1.6299584488429713e-05
1.705,-1.6071019053662747e-05
1.71,-1.606020306056146e-05
1.715,-1.616444230818945e-05
1.72,-1.6273358678303626e-05
1.725,-1.6289884250631158e-05
1.73,-1.613754590303173e-05
1.735,-1.5774903555732274e-05
1.74,-1.5227461273632695e-05
1.745,-1.4608046505317072e-05
1.75,-1.4079866326847067e-05
1.7550000000000001,-1.3761343378033758e-05
1.76,-1.364193271227807e-05
1.7650000000000001,-1.35856519096316e-05
1.77,-1.3416567323254987e-05
1.7750000000000001,-1.3000559028843213e-05
1.78,-1.2264621960657476e-05
1.7850000000000001,-1.118433729142896e-05
1.79,-9.787935156048416e-06
1.795,-8.163870115243963e-06
1.8,-6.435275421344786e-06
1.805,-4.711716608490243e-06
1.81,-3.058856951161076e-06
1.815,-1.4990152807238874e-06
1.82,-2.5768792853611962e-08
1.825,1.3781955759705464e-06
1.83,2.718301710073334e-06
1.835,3.9656795020363356e-06
1.84,5.048848981209597e-06
1.845,5.866892058830277e-06
1.85,6.324119050012918e-06
1.855,6.384018631014922e-06
1.86,6.124317419662332e-06
1.865,5.748500017946329e-06
1.87,5.518436953039063e-06
1.875,5.637465025489187e-06
1.8800000000000001,6.168684479987958e-06
1.885,7.042106929116912e-06
1.8900000000000001,8.117286706635123e-06
1.895,9.235457983609233e-06
1.9000000000000001,1.0245038517870818e-05
1.905,1.1028654037465739e-05
1.9100000000000001,1.1541115302062088e-05
1.915,1.1831589217791373e-05
1.92,1.2025667366360952e-05
1.925,1.2272546989753625e-05
1.93,1.2681293299785678e-05
1.935,1.3273692470744028e-05
1.94,1.3976228292652263e-05
1.945,1.4651845668038347e-05
1.95,1.5148847006855466e-05
1.955,1.5350567466303796e-05
1.96,1.5222321790255128e-05
1.965,1.4832627863260457e-05
1.97,1.4314553501975096e-05
1.975,1.3783541358909364e-05
1.98,1.3281559316839462e-05
1.985,1.2784281288442937e-05
1.99,1.2232483947531345e-05
1.995,1.1545202156144726e-05
2,1.0629166699123746e-05
2.005,9.40916440270115e-06
2.0100000000000002,7.860796641718502e-06
2.015,6.020646237162287e-06
2.02,3.9855861080870305e-06
2.025,1.9131311750348957e-06
2.0300000000000002,-1.7072612042423204e-09
2.035,-1.58688416675738e-06
2.04,-2.7492801283259853e-06
2.045,-3.4824729838555177e-06
2.05,-3.842179987371246e-06
2.055,-3.92412689823266e-06
2.06,-3.842011263605665e-06
2.065,-3.6976830895964172e-06
2.07,-3.5660010769153613e-06
2.075,-3.5063470262797944e-06
2.08,-3.5738789563712966e-06
2.085,-3.812819739770761e-06
2.09,-4.251808953739356e-06
2.095,-4.911218317290387e-06
2.1,-5.7990672066891154e-06
2.105,-6.89239564119641e-06
2.11,-8.141416632368662e-06
2.115,-9.507242188686417e-06
2.12,-1.0981295284203209e-05
2.125,-1.254134438723359e-05
2.13,-1.4078785778548255e-05
2.1350000000000002,-1.538231362376729e-05
2.14,-1.62232669269156e-05
2.145,-1.6496296628816852e-05
2.15,-1.630437629573216e-05
2.1550000000000002,-1.590219409334643e-05
2.16,-1.5528646162292778e-05
2.165,-1.526770530984312e-05
2.17,-1.5050130395158716e-05
2.1750000000000003,-1.4760157557947084e-05
2.18,-1.4316171353693565e-05
2.185,-1.3667843235124433e-05
2.19,-1.2775724405514787e-05
2.195,-1.1632325685861985e-05
2.2,-1.028715749719982e-05
2.205,-8.826181450605444e-06
2.21,-7.331896171138709e-06
2.215,-5.872422940706211e-06
2.22,-4.5134891228003515e-06
2.225,-3.317315288273837e-06
2.23,-2.3211871284952735e-06
2.235,-1.5200672213975099e-06
2.24,-8.757971254290531e-07
2.245,-3.5272927872617065e-07
2.25,4.3671370729142425e-08
2.255,2.5875136681630904e-07
2.2600000000000002,2.2473326052491544e-07
2.265,-9.339224267265145e-08
2.27,-6.982986501640877e-07
2.275,-1.6088637167063588e-06
2.2800000000000002,-2.8903652544855293e-06
2.285,-4.626447015701263e-06
2.29,-6.878384670301353e-06
2.295,-9.684670536751687e-06
2.3000000000000003,-1.307771651626296e-05
2.305,-1.7061489933565192e-05
2.31,-2.1550302056527663e-05
2.315,-2.6326356878933003e-05
2.32,-3.1059083578746824e-05
2.325,-3.537428715041052e-05
2.33,-3.8931635307596146e-05
2.335,-4.148041509644952e-05
2.34,-4.288812812772982e-05
2.345,-4.314745589778889e-05
2.35,-4.2358032597470184e-05
2.355,-4.067238432142266e-05
2.36,-3.822289484221204e-05
2.365,-3.508943682893248e-05
2.37,-3.134476460583098e-05
2.375,-2.7117770114024263e-05
2.38,-2.2577783700948762e-05
2.3850000000000002,-1.78450430650259e-05
2.39,-1.2938765341966108e-05
2.395,-7.836701427879395e-06
2.4,-2.599039337639476e-06
2.4050000000000002,2.5471821224029434e-06
2.41,7.235879359098842e-06
2.415,1.1110938519767714e-05
2.42,1.4018668270438019e-05
2.4250000000000003,1.6093251324369153e-05
2.43,1.7646002206539462e-05
2.435,1.8960356874493107e-05
2.44,2.0183967298483306e-05
2.445,2.1365075681954962e-05
2.45,2.2512925695253507e-05
2.455,2.3598064914999893e-05
2.46,2.454130793340663e-05
2.465,2.5249632046005155e-05
2.47,2.5665324484858426e-05
2.475,2.5770654870665185e-05
2.48,2.555739146856246e-05
2.485,2.500955769871728e-05
2.49,2.411245234402442e-05
2.495,2.2863994330332773e-05
2.5,2.127513361633558e-05
2.505,1.9366515751005516e-05
2.5100000000000002,1.7164974910121565e-05
2.515,1.469807199070363e-05
2.52,1.1990765855093612e-05
2.525,9.06477194026659e-06
2.5300000000000002,5.933840937858465e-06
2.535,2.6029957597007104e-06
2.54,-9.072407719944019e-07
2.545,-4.52397320804609e-06
2.5500000000000003,-8.126741788621347e-06
2.555,-1.16103884369662e-05
2.56,-1.4931703836629627e-05
2.565,-1.8074306234769578e-05
2.57,-2.0992856064123128e-05
2.575,-2.3631999397210392e-05
2.58,-2.5980171832260116e-05
2.585,-2.8055719326617814e-05
2.59,-2.9853403832106427e-05
2.595,-3.1360908883024904e-05
2.6,-3.263579990730377e-05
2.605,-3.382530618919154e-05
2.61,-3.5094545223520554e-05
2.615,-3.65531745965886e-05
2.62,-3.8245125220719804e-05
2.625,-4.016601653285606e-05
2.63,-4.2264330864507206e-05
2.6350000000000002,-4.4443682482107715e-05
2.64,-4.659009915735676e-05
2.645,-4.860397498183547e-05
2.65,-5.041322783624697e-05
2.6550000000000002,-5.197686075945721e-05
2.66,-5.328610428591705e-05
2.665,-5.435074761736564e-05
2.67,-5.5177683727732455e-05
2.6750000000000003,-5.576837465878837e-05
2.68,-5.6129784205147025e-05
2.685,-5.627081890320593e-05
2.69,-5.619312141996144e-05
2.695,-5.5900860526391935e-05
2.7,-5.540626687526986e-05
2.705,-5.469684978145452e-05
2.71,-5.3699562486924885e-05
2.715,-5.230751070276292e-05
2.72,-5.045773314391741e-05
2.725,-4.817667441946595e-05
2.73,-4.555059251860913e-05
2.735,-4.2664915676934935e-05
2.74,-3.9574784497983994e-05
2.745,-3.632357090449796e-05
2.75,-3.298269955016571e-05
2.755,-2.9668858948371666e-05
2.7600000000000002,-2.6510227158677555e-05
2.765,-2.3584276704889294e-05
2.77,-2.0889017136213106e-05
2.775,-1.8374937607062446e-05
2.7800000000000002,-1.599083981560789e-05
2.785,-1.3690186100403608e-05
2.79,-1.1412307134511471e-05
2.795,-9.083670089621619e-06
2.8000000000000003,-6.640310216785553e-06
2.805,-4.044294006816616e-06
2.81,-1.2974451351550693e-06
2.815,1.531897611150123e-06
2.82,4.292272962592545e-06
2.825,6.779471878331827e-06
2.83,8.805873084631068e-06
2.835,1.026538768987426e-05
2.84,1.1160433595543521e-05
2.845,1.1578877884977097e-05
2.85,1.1632898462678428e-05
2.855,1.1405621474195848e-05
2.86,1.0950347451139012e-05
2.865,1.0321587336240256e-05
2.87,9.570652065656651e-06
2.875,8.695410812568954e-06
2.88,7.614016183521331e-06
2.8850000000000002,6.208941251313341e-06
2.89,4.402116472992498e-06
2.895,2.2016084446692818e-06
2.9,-2.905994808788832e-07
2.9050000000000002,-2.8917704368640934e-06
2.91,-5.374596554619161e-06
2.915,-7.538313446576191e-06
2.92,-9.288998899938982e-06
2.9250000000000003,-1.0671660518494658e-05
2.93,-1.1831479839300749e-05
2.935,-1.294201300144474e-05
2.94,-1.4150398357942561e-05
2.945,-1.5559562856815245e-05
2.95,-1.723512154429597e-05
2.955,-1.920342200650323e-05
2.96,-2.1419494898651993e-05
2.965,-2.3740434672316884e-05
2.97,-2.5965823040803658e-05
2.975,-2.7930059499640327e-05
2.98,-2.955125430787077e-05
2.985,-3.080244698764021e-05
2.99,-3.1684515653508645e-05
2.995,-3.225343623426451e-05
3,-3.2641974637134015e-05
3.005,-3.301715528105508e-05
3.0100000000000002,-3.35146510569561e-05
3.015,-3.421606460739648e-05
3.02,-3.5164427343741825e-05
3.025,-3.637268656865487e-05
3.0300000000000002,-3.781453308617275e-05
3.035,-3.94238632286403e-05
3.04,-4.111542788762148e-05
3.045,-4.2805427287107295e-05
3.0500000000000003,-4.440753761387167e-05
3.055,-4.580851768107724e-05
3.06,-4.685205420559078e-05
3.065,-4.735981859399637e-05
3.0700000000000003,-4.719625876031892e-05
3.075,-4.6339876915511896e-05
3.08,-4.489334676792253e-05
3.085,-4.301076520441201e-05
3.09,-4.081091083531424e-05
3.095,-3.835262024556556e-05
3.1,-3.566124262244344e-05
3.105,-3.274987852261081e-05
3.11,-2.9620469252933566e-05
3.115,-2.62649431661718e-05
3.12,-2.2673446094758936e-05
3.125,-1.8842756769463698e-05
3.13,-1.478714937809569e-05
3.1350000000000002,-1.0560700699786458e-05
3.14,-6.2864981195977346e-06
3.145,-2.16709431220251e-06
3.15,1.5511073574986273e-06
3.1550000000000002,4.652473862967673e-06
3.16,7.011226037985759e-06
3.165,8.580090072173914e-06
3.17,9.327059962208471e-06
3.1750000000000003,9.21068360537284e-06
3.18,8.242859900417876e-06
3.185,6.561346908074945e-06
3.19,4.402208368035551e-06
3.1950000000000003,1.9890493140032127e-06
3.2,-5.415321848428471e-07
3.205,-3.120381425715912e-06
3.21,-5.6821122880652545e-06
3.215,-8.117593935521918e-06
3.22,-1.0263142736946503e-05
3.225,-1.1938781600356056e-05
3.23,-1.3030392291273837e-05
3.235,-1.3556225477362974e-05
3.24,-1.365488196940849e-05
3.245,-1.3514688319936865e-05
3.25,-1.3316383154059925e-05
3.255,-1.3210194873120193e-05
3.2600000000000002,-1.3294847173360816e-05
3.265,-1.3598879781043098e-05
3.27,-1.410564174286142e-05
3.275,-1.481325075583195e-05
3.2800000000000002,-1.5754820709675017e-05
3.285,-1.6950663378515252e-05
3.29,-1.836114001814336e-05
3.295,-1.9902035627396185e-05
