# Strata Output: Acceleration Time Series
# Project:TST site
# Time (s),S-1-M-LOMAP\GIL067.AT2,
0,0.0003286551723557794
0.005,0.00032314655666962154
0.01,0.0003174884016158406
0.015,0.000311689651636561
0.02,0.00030575914265492174
0.025,0.0002997055787747242
0.03,0.00029353749604316137
0.035,0.00028726321895710706
0.04,0.0002808908166314585
0.045,0.00027442806548680197
0.05,0.00026788242407664077
0.055,0.00026126102356049616
0.06,0.0002545706747728306
0.065,0.00024781789033158466
0.07,0.00024100891822404562
0.075,0.00023414978209671867
0.08,0.00022724632315002734
0.085,0.00022030423897669997
0.09,0.0002133291156404081
0.095,0.0002063264504888121
0.1,0.00019930166441523307
0.105,0.00019226010339571216
0.11,0.00018520703008434054
0.115,0.00017814760703212555
0.12,0.00017108687368244758
0.125,0.00016402971964995817
0.13,0.0001569808568694892
0.135,0.00014994479299605863
0.14,0.00014292580799000828
0.145,0.00013592793522728433
0.15,0.00012895494785926362
0.155,0.00012201035062021287
0.16,0.00011509737690806338
0.165,0.00010821899074858479
0.17,0.00010137789314264624
0.17500000000000002,9.457653221964399e-05
0.18,8.781711652054446e-05
0.185,8.110163059695057e-05
0.19,7.443185197075849e-05
0.195,6.780936841445982e-05
0.2,6.123559454871995e-05
0.20500000000000002,5.471178694338187e-05
0.21,4.82390572367322e-05
0.215,4.1818383193861196e-05
0.22,3.545061801336309e-05
0.225,2.9136498467611026e-05
0.23,2.287665255167415e-05
0.23500000000000001,1.6671607196889567e-05
0.24,1.0521796308912606e-05
0.245,4.427568997844336e-06
0.25,-1.6108025168009498e-06
0.255,-7.593116120887061e-06
0.26,-1.3519235041218797e-05
0.265,-1.9389085919273778e-05
0.27,-2.520266030035152e-05
0.275,-3.096001978163944e-05
0.28,-3.66613047144263e-05
0.28500000000000003,-4.2306746060743706e-05
0.29,-4.7896679809483754e-05
0.295,-5.3431563275844306e-05
0.3,-5.891199262728798e-05
0.305,-6.433872106104679e-05
0.31,-6.971267715813143e-05
0.315,-7.503498301571664e-05
0.32,-8.030697178836744e-05
0.325,-8.553020425085108e-05
0.33,-9.0706483954135e-05
0.335,-9.583787052492143e-05
0.34,-0.00010092669070192464
0.34500000000000003,-0.00010597554684092318
0.35000000000000003,-0.00011098732286252547
0.355,-0.0001159651879361524
0.36,-0.00012091259853544787
0.365,-0.00012583329979708218
0.37,-0.00013073132729778084
0.375,-0.0001356110103910138
0.38,-0.0001404769781013147
0.385,-0.00014533416828752048
0.39,-0.00015018784041007595
0.395,-0.00015504359184484212
0.4,-0.00015990737735002917
0.405,-0.00016478553107689007
0.41000000000000003,-0.00016968479045743686
0.41500000000000004,-0.00017461232142046413
0.42,-0.00017957574466471817
0.425,-0.00018458316311916286
0.43,-0.0001896431911890379
0.435,-0.00019476498685807122
0.44,-0.00019995828812740263
0.445,-0.00020523345556954078
0.45,-0.0002106015229257425
0.455,-0.00021607425767421575
0.46,-0.00022166423335926873
0.465,-0.0002273849152396896
0.47000000000000003,-0.00023325076054173655
0.47500000000000003,-0.00023927733434553713
0.48,-0.0002454814419459202
0.485,-0.0002518812784520522
0.49,-0.00025849659644567897
0.495,-0.000265348892714941
0.5,-0.0002724616154066947
0.505,-0.000279860393373908
0.51,-0.0002875732900050577
0.515,-0.0002956310843725523
0.52,-0.00030406758308900876
0.525,-0.00031291996677013117
0.53,-0.00032222917541800753
0.535,-0.00033204033729175326
0.54,-0.0003424032458230599
0.545,-0.00035337288872183166
0.55,-0.0003650100323911393
0.555,-0.0003773818628300303
0.56,-0.00039056268091731044
0.5650000000000001,-0.0004046346447358574
0.5700000000000001,-0.0004196885435829523
0.5750000000000001,-0.000435824576393787
0.58,-0.00045315309001414287
0.585,-0.00047179520825218216
0.59,-0.0004918832487900838
0.595,-0.000513560779686137
0.6,-0.0005369821088345192
0.605,-0.0005623109287999781
0.61,-0.000589717760585901
0.615,-0.0006193757656258444
0.62,-0.0006514544506823105
0.625,-0.0006861108177035077
0.63,-0.0007234776707704439
0.635,-0.0007636491553855327
0.64,-0.0008066642239018377
0.645,-0.0008524895780543039
0.65,-0.0009010045851379074
0.655,-0.0009519913778082832
0.66,-0.0010051333928426517
0.665,-0.001060024621766578
0.67,-0.0011161898280013212
0.675,-0.0011731134510289563
0.68,-0.0012302727828472524
0.685,-0.0012871701139718032
0.6900000000000001,-0.001343359185901046
0.6950000000000001,-0.0013984630259780337
0.7000000000000001,-0.0014521822812281818
0.705,-0.0015042948529834352
0.71,-0.0015546487067686708
0.715,-0.0016031502345552685
0.72,-0.001649750597347503
0.725,-0.0016944321673943864
0.73,-0.0017371966232846484
0.735,-0.0017780555814529224
0.74,-0.0018170240462439904
0.745,-0.001854116544100458
0.75,-0.0018893455929038798
0.755,-0.0019227220805215126
0.76,-0.0019542570981678858
0.765,-0.0019839647348216687
0.77,-0.002011865280057783
0.775,-0.0020379882352688926
0.78,-0.002062374543426226
0.785,-0.002085077552928256
0.79,-0.002106162439709175
0.795,-0.002125704085819937
0.8,-0.002143783672190186
0.805,-0.0021604844002416357
0.81,-0.002175886764951022
0.8150000000000001,-0.0021900636858576414
0.8200000000000001,-0.002203075645988376
0.8250000000000001,-0.0022149658872115535
0.8300000000000001,-0.0022257557228387587
0.835,-0.002235440155172145
0.84,-0.002243984183607088
0.845,-0.0022513203987099646
0.85,-0.0022573486178271967
0.855,-0.002261938352971786
0.86,-0.0022649347185309636
0.865,-0.0022661679146170205
0.87,-0.0022654656915312
0.875,-0.002262667384944158
0.88,-0.002257637477423052
0.885,-0.002250276430443935
0.89,-0.002240526845983149
0.895,-0.002228373793159485
0.9,-0.0022138391819013334
0.905,-0.002196971137389783
0.91,-0.0021778301960231595
0.915,-0.0021564746445739635
0.92,-0.0021329473977640023
0.925,-0.002107266489542847
0.93,-0.002079420633107044
0.935,-0.0020493705006198047
0.9400000000000001,-0.0020170555118564555
0.9450000000000001,-0.0019824051304750995
0.9500000000000001,-0.0019453530520148002
0.9550000000000001,-0.0019058522786436509
0.96,-0.001863888919341965
0.965,-0.0018194926541943953
0.97,-0.0017727422253348286
0.975,-0.001723765104268552
0.98,-0.0016727315261230798
0.985,-0.00161984408997507
0.99,-0.0015653247788482228
0.995,-0.0015094014025149199
1,-0.0014522952202150868
1.0050000000000001,-0.0013942111178305277
1.01,-0.0013353313958221918
1.0150000000000001,-0.0012758139845255774
1.02,-0.001215795606369548
1.025,-0.001155399911254475
1.03,-0.0010947499165019625
1.035,-0.001033983351311265
1.04,-0.0009732689896553013
1.045,-0.000912821948468257
1.05,-0.0008529162525787211
1.055,-0.000793893566545024
1.06,-0.0007361676051594416
1.065,-0.0006802240866132627
1.07,-0.0006266159761538301
1.075,-0.0005759531307734296
1.08,-0.0005288845337375891
1.085,-0.0004860707027709038
1.09,-0.0004481443718272457
1.095,-0.0004156597356540728
1.1,-0.0003890341844384664
1.105,-0.00036849036182593056
1.11,-0.00035400884701224556
1.115,-0.0003453014319108733
1.12,-0.0003418115957492613
1.125,-0.0003427433922713713
1.1300000000000001,-0.0003471142990605511
1.135,-0.0003538232810620423
1.1400000000000001,-0.00036172336786161014
1.145,-0.00036968859668785366
1.1500000000000001,-0.000376667724185428
1.155,-0.0003817207515626952
1.16,-0.0003840380409377169
1.165,-0.00038294484923338893
1.17,-0.00037789610228142363
1.175,-0.000368467163546833
1.18,-0.00035434633047402663
1.185,-0.0003353338500568799
1.19,-0.00031135032563360597
1.195,-0.00028245451244799237
1.2,-0.00024886702233265786
1.205,-0.00021099323224084047
1.21,-0.00016943699639840903
1.215,-0.0001249978299592468
1.22,-7.864846408297715e-05
1.225,-3.14959740452194e-05
1.23,1.5264480622089492e-05
1.235,6.039180286996358e-05
1.24,0.00010262803099294871
1.245,0.00014071202298244833
1.25,0.00017338294565914843
1.2550000000000001,0.00019938329653742973
1.26,0.00021747065068235318
1.2650000000000001,0.00022644264888396483
1.27,0.0002251741296348823
1.2750000000000001,0.00021266193346870257
1.28,0.0001880727944255261
1.285,0.0001507913263387518
1.29,0.00010046578141150926
1.295,3.704751990205025e-05
1.3,-3.918301549270434e-05
1.305,-0.0001276125888698462
1.31,-0.00022731960735688716
1.315,-0.0003371248879412165
1.32,-0.0004556574258077726
1.325,-0.0005814173972118578
1.33,-0.0007128190834284185
1.335,-0.0008482041535763182
1.34,-0.0009858276640532652
1.345,-0.0011238304550046736
1.35,-0.0012602182471145287
1.355,-0.0013928674863618992
1.36,-0.001519570743133129
1.365,-0.0016381220813733502
1.37,-0.0017464289695190269
1.375,-0.0018426268493597635
1.3800000000000001,-0.0019251695478620825
1.385,-0.001992874634143838
1.3900000000000001,-0.0020449154022872686
1.395,-0.0020807660122573435
1.4000000000000001,-0.002100118985810562
1.405,-0.0021028015493475363
1.41,-0.002088717578278182
1.415,-0.002057834975181076
1.42,-0.0020102258400246475
1.425,-0.0019461521907270568
1.43,-0.0018661774902963867
1.435,-0.0017712771641327587
1.44,-0.0016629208984400227
1.445,-0.0015431050700998792
1.45,-0.0014143234153347263
1.455,-0.0012794759522568558
1.46,-0.001141727929712207
1.465,-0.0010043395141161897
1.47,-0.0008704905782641885
1.475,-0.0007431223315388226
1.48,-0.0006248101108768185
1.485,-0.0005176729315854214
1.49,-0.0004233189059658029
1.495,-0.0003428227960246276
1.5,-0.0002767315055323234
1.5050000000000001,-0.0002250927729718232
1.51,-0.00018750035248336105
1.5150000000000001,-0.00016314650953747263
1.52,-0.00015087208146334519
1.5250000000000001,-0.000149207392855812
1.53,-0.0001564035363511384
1.5350000000000001,-0.0001704603828144056
1.54,-0.0001891618730933106
1.545,-0.00021012826946936438
1.55,-0.00023088879226668528
1.555,-0.00024896863559427905
1.56,-0.00026197598622161583
1.565,-0.00026767203636015924
1.57,-0.0002640127275020152
1.575,-0.0002491636054064906
1.58,-0.0002215030466695024
1.585,-0.00017963707220682398
1.59,-0.0001224463864048875
1.595,-4.917383300375951e-05
1.6,4.045659457816334e-05
1.605,0.00014611327489921848
1.61,0.00026675623092393996
1.615,0.0004005970651197419
1.62,0.0005451486841488088
1.625,0.0006973805517982521
1.6300000000000001,0.000853974789523035
1.635,0.0010116543584892932
1.6400000000000001,0.0011675335318441244
1.645,0.0013194303677014933
1.6500000000000001,0.0014660849249861939
1.655,0.0016072438588519776
1.6600000000000001,0.0017435962199287413
1.665,0.001876571245204903
1.67,0.0020080334859484666
1.675,0.0021399315553663283
1.68,0.0022739699175178996
1.685,0.0024113719477116794
1.69,0.0025527820022819424
1.695,0.0026983164595645545
1.7,0.002847729634048298
1.705,0.003000626195886079
1.71,0.003156640770677653
1.715,0.003315522130585944
1.72,0.0034770970983640528
1.725,0.0036411333721549405
1.73,0.0038071548963266653
1.735,0.003974277247967692
1.74,0.004141121848477141
1.745,0.004305843139927308
1.75,0.004466272782956685
1.7550000000000001,0.004620158787394418
1.76,0.004765460241370282
1.7650000000000001,0.004900650883192026
1.77,0.0050249862920364
1.7750000000000001,0.005138698707644468
1.78,0.0052430983381949
1.7850000000000001,0.0053405767266211865
1.79,0.005434521696489887
1.795,0.005529161406352909
1.8,0.005629356861580089
1.805,0.00574035942961693
1.81,0.005867543353130523
1.815,0.006016112731059618
1.82,0.006190769865863525
1.825,0.006395324930730187
1.83,0.006632237179098471
1.835,0.006902111975243811
1.84,0.007203227644060786
1.845,0.007531207978118649
1.85,0.007878963015680978
1.855,0.008236978510189095
1.86,0.00859395249028086
1.865,0.008937683688030653
1.87,0.00925604496797734
1.875,0.00953785010912161
1.8800000000000001,0.009773452929396291
1.885,0.009954995177358887
1.8900000000000001,0.010076321202160213
1.895,0.010132671958160441
1.9000000000000001,0.01012032690652423
1.905,0.010036358843103041
1.9100000000000001,0.009878603122610324
1.915,0.009645842595084528
1.92,0.0093381126699985
1.925,0.008956976627714632
1.93,0.008505630206511617
1.935,0.007988759092991474
1.94,0.007412162653200941
1.945,0.0067822346311296276
1.95,0.006105430036759689
1.955,0.005387841044238395
1.96,0.004634966107793683
1.965,0.0038517067221804768
1.97,0.0030425826806985082
1.975,0.0022121257517752346
1.98,0.0013653896761081001
1.985,0.0005084947422213956
1.99,-0.00035089321398475994
1.995,-0.001203259616293065
2,-0.0020372146170797626
2.005,-0.0028398075463469652
2.0100000000000002,-0.0035971839557572475
2.015,-0.004295508974691369
2.02,-0.0049220070151677914
2.025,-0.005465922394486676
2.0300000000000002,-0.005919209232387839
2.035,-0.006276819482758971
2.04,-0.006536560980508111
2.045,-0.006698609100655942
2.05,-0.006764836682524617
2.055,-0.006738151145383922
2.06,-0.006621993911124761
2.065,-0.006420086312054667
2.07,-0.006136427837644163
2.075,-0.00577549092627937
2.08,-0.005342522681121547
2.085,-0.004843857218715175
2.09,-0.00428715566610461
2.095,-0.003681515601705196
2.1,-0.0030374214364097675
2.105,-0.0023665381935295904
2.11,-0.0016813809625172526
2.115,-0.0009949167193591606
2.12,-0.0003201668805789506
2.125,0.00033012900820494174
2.13,0.0009437555158385973
2.1350000000000002,0.0015091732381241464
2.14,0.0020156146555360232
2.145,0.002453172183781274
2.15,0.002812923912935328
2.1550000000000002,0.003087129094277667
2.16,0.0032695055863581272
2.165,0.0033555754486107553
2.17,0.0033430340784510342
2.1750000000000003,0.003232070179516671
2.18,0.0030255494119113793
2.185,0.0027289810619515044
2.19,0.0023502143458251656
2.195,0.0018988545915348686
2.2,0.001385444911089472
2.205,0.0008205199813949021
2.21,0.00021369243099451807
2.215,-0.0004270412837982686
2.22,-0.0010956093911848209
2.225,-0.001787695466646899
2.23,-0.002500110754054399
2.235,-0.003229844710467232
2.24,-0.003973015759692216
2.245,-0.004723970974220992
2.25,-0.005474743757706868
2.255,-0.006214986228738571
2.2600000000000002,-0.006932377532014562
2.265,-0.007613405449779542
2.27,-0.008244353867200594
2.275,-0.008812313853234138
2.2800000000000002,-0.009306063846687997
2.285,-0.009716714641596756
2.29,-0.010038066444772656
2.295,-0.010266666914931378
2.3000000000000003,-0.01040159238400495
2.305,-0.010444007086236821
2.31,-0.010396590145833913
2.315,-0.010262950391808775
2.32,-0.010047162247730187
2.325,-0.00975354186965658
2.33,-0.009386737724069545
2.335,-0.008952136306180636
2.34,-0.008456491395585432
2.345,-0.007908596048374659
2.35,-0.007319765044958903
2.355,-0.006703915752374162
2.36,-0.0060771374031786864
2.365,-0.0054567934722073354
2.37,-0.00486034933751293
2.375,-0.004304197330795192
2.38,-0.003802734125357012
2.3850000000000002,-0.0033678453018654918
2.39,-0.0030088152384804374
2.395,-0.00273256083305956
2.4,-0.0025440227349021283
2.4050000000000002,-0.002446548281947632
2.41,-0.0024421517679067
2.415,-0.0025316119688548995
2.42,-0.002714435693883949
2.4250000000000003,-0.002988759509350328
2.43,-0.0033512701672665283
2.435,-0.00379719748780521
2.44,-0.004320381395870132
2.445,-0.004913359250457979
2.45,-0.0055673904309634864
2.455,-0.0062723562814075
2.46,-0.00701654458694641
2.465,-0.007786416993960951
2.47,-0.008566516731054007
2.475,-0.00933966693127576
2.48,-0.010087536614646187
2.485,-0.010791546222753317
2.49,-0.011433993319727333
2.495,-0.011999232848119644
2.5,-0.012474749908760064
2.505,-0.012852000999525475
2.5100000000000002,-0.013126950973017464
2.515,-0.013300282070723125
2.52,-0.01337729049499331
2.525,-0.013367511658553651
2.5300000000000002,-0.013284125536145238
2.535,-0.013143189901816978
2.54,-0.012962740777102164
2.545,-0.012761801212287125
2.5500000000000003,-0.012559360796246302
2.555,-0.012373419046981686
2.56,-0.01222019830848899
2.565,-0.012113602072326804
2.57,-0.01206492758253535
2.575,-0.012082773212668504
2.58,-0.012173052293037973
2.585,-0.012339048720887202
2.59,-0.01258150137887544
2.595,-0.012898743483339418
2.6,-0.013286923259369416
2.605,-0.013740296435518362
2.61,-0.014251532584394195
2.615,-0.014811943941431585
2.62,-0.015411546821240317
2.625,-0.01603890959389458
2.63,-0.016680820158696947
2.6350000000000002,-0.01732189642867159
2.64,-0.01794432974048418
2.645,-0.018527958702739347
2.65,-0.019050804524838295
2.6550000000000002,-0.019490074635675005
2.66,-0.019823504293112935
2.665,-0.02003081030942772
2.67,-0.02009501443789079
2.6750000000000003,-0.020003457162780854
2.68,-0.019748428879386548
2.685,-0.019327440910914633
2.69,-0.018743203323926726
2.695,-0.0180033658825676
2.7,-0.01712004363043079
2.705,-0.016109131612190557
2.71,-0.014989436642905654
2.715,-0.013781704751496015
2.72,-0.012507663288798335
2.725,-0.01118919432630945
2.73,-0.009847709114523132
2.735,-0.008503730376105398
2.74,-0.007176643096747858
2.745,-0.005884556749090101
2.75,-0.004644220694476673
2.755,-0.0034709365361848526
2.7600000000000002,-0.002378420557086459
2.765,-0.0013786003733608767
2.77,-0.00048138166123240067
2.775,0.0003055352384908628
2.7800000000000002,0.0009767095749573474
2.785,0.0015288613567934785
2.79,0.001960674535247473
2.795,0.0022726089232686306
2.8000000000000003,0.002466819338569347
2.805,0.0025472207926691905
2.81,0.0025196654495321545
2.815,0.002392147208605491
2.82,0.002174936226268204
2.825,0.001880560076364833
2.83,0.001523577958267
2.835,0.0011201341752486457
2.84,0.0006873250421875559
2.845,0.00024246021169521936
2.85,-0.0001976724232586318
2.855,-0.0006174338250012045
2.86,-0.0010027845940918606
2.865,-0.0013415411078212052
2.87,-0.0016234613441562737
2.875,-0.0018402085616345673
2.88,-0.001985247313371435
2.8850000000000002,-0.0020537214348258282
2.89,-0.0020423502178652827
2.895,-0.001949355296917546
2.9,-0.0017743991077382682
2.9050000000000002,-0.0015184891259043636
2.91,-0.001183799564379124
2.915,-0.0007733941440331332
2.92,-0.0002908885857370519
2.9250000000000003,0.0002598617172909139
2.93,0.0008749581028504196
2.935,0.0015504969469531465
2.94,0.0022824895248410105
2.945,0.0030667730797729357
2.95,0.003899036875119834
2.955,0.0047750297172113555
2.96,0.00569091182244187
2.965,0.0066436174820502895
2.97,0.007631057869346586
2.975,0.008652037162119895
2.98,0.009705860431799362
2.985,0.010791730336403741
2.99,0.01190810986172644
2.995,0.013052237456281552
3,0.014219916372414114
3.005,0.015405589259351201
3.0100000000000002,0.016602599250802867
3.015,0.017803477635661064
3.02,0.019000110498083925
3.025,0.020183710156709535
3.0300000000000002,0.021344610025477134
3.035,0.022471969463866828
3.04,0.023553498442527635
3.045,0.02457530060597148
3.0500000000000003,0.025521910266117616
3.055,0.026376576887080554
3.06,0.027121826130031237
3.065,0.027740291604800668
3.0700000000000003,0.028215769114462795
3.075,0.02853441018054892
3.08,0.02868595616839875
3.085,0.028664914289332235
3.09,0.02847157502110921
3.095,0.028112755603985292
3.1,0.0276021360107415
3.105,0.026960058831840154
3.11,0.02621271474804698
3.115,0.02539072838067697
3.12,0.02452726875701748
3.125,0.02365590096338457
3.13,0.02280844823523267
3.1350000000000002,0.022013139577298904
3.14,0.021293278520641615
3.145,0.020666588388176723
3.15,0.020145278320689828
3.1550000000000002,0.019736751695932572
3.16,0.01944477034119171
3.165,0.01927081638779395
3.17,0.019215370165253196
3.1750000000000003,0.01927884998291327
3.18,0.019462038201540393
3.185,0.019765943885548903
3.19,0.02019120752491741
3.1950000000000003,0.020737298553390435
3.2,0.02140184044286352
3.205,0.022180382156314904
3.21,0.023066815402530128
3.215,0.02405445190464644
3.22,0.025137585163877322
3.225,0.026313224581115558
3.23,0.027582638087728747
3.235,0.02895237287795127
3.24,0.030434520558902122
3.245,0.03204612373648373
3.25,0.033807759010402505
3.255,0.035741455228240515
3.2600000000000002,0.03786819967874813
3.265,0.04020533927336988
3.27,0.04276419691135677
3.275,0.04554819841687079
3.2800000000000002,0.04855174553475196
3.285,0.051759976043793766
3.29,0.055149427374344535
3.295,0.05868948221908739
3.3000000000000003,0.06234435449067307
3.305,0.06607530485712629
3.31,0.06984277527483587
3.315,0.07360819561199379
3.3200000000000003,0.0773353179195434
3.325,0.08099104516637673
3.33,0.08454581677001709
3.335,0.08797367688266568
3.34,0.09125217432834044
3.345,0.0943622245834585
3.35,0.0972880144228639
3.355,0.10001696966127685
3.36,0.10253975984814036
3.365,0.1048502962533128
3.37,0.10694569012620513
3.375,0.10882616229900892
3.38,0.11049491449469105
3.3850000000000002,0.11195797524033488
