# Strata Output: Acceleration Time Series
# Project:TST site
# Time (s),S-1-M-LOMAP\GIL067.AT2,
0,0.001091822586579778
0.005,0.0011071500425498043
0.01,0.0011217133630411083
0.015,0.001135516156584076
0.02,0.0011485623607766513
0.025,0.0011608562133230825
0.03,0.0011724022278406133
0.035,0.0011832051730853454
0.04,0.0011932700542186165
0.045,0.001202602094842951
0.05,0.0012112067187656638
0.055,0.0012190895307785988
0.06,0.0012262562961339834
0.065,0.0012327129188046192
0.07,0.0012384654190000905
0.075,0.0012435199107253057
0.08,0.0012478825803893712
0.085,0.0012515596675825454
0.09,0.0012545574491330774
0.095,0.0012568822274454023
0.1,0.0012585403239216708
0.105,0.0012595380780048954
0.11,0.001259881852081923
0.115,0.0012595780421722888
0.12,0.0012586330940286877
0.125,0.001257053524007308
0.13,0.0012548459438435353
0.135,0.0012520170883009284
0.14,0.0012485738445529252
0.145,0.0012445232821076315
0.15,0.0012398726820920126
0.155,0.001234629564770183
0.16,0.0012288017142695722
0.165,0.0012223971996292333
0.17,0.0012154243914479813
0.17500000000000002,0.0012078919735997054
0.18,0.001199808949682085
0.185,0.0011911846440699916
0.19,0.0011820286976433616
0.195,0.0011723510584483266
0.2,0.0011621619677124261
0.20500000000000002,0.0011514719417758583
0.21,0.0011402917506018535
0.215,0.0011286323936004939
0.22,0.0011165050735309407
0.225,0.0011039211692459969
0.23,0.0010908922080081246
0.23500000000000001,0.0010774298380470814
0.24,0.0010635458019454505
0.245,0.0010492519113429785
0.25,0.001034560023337869
0.255,0.0010194820188506252
0.26,0.0010040297830958614
0.265,0.0009882151881937605
0.27,0.0009720500778420342
0.275,0.0009555462538731106
0.28,0.0009387154644356623
0.28500000000000003,0.000921569393477835
0.29,0.0009041196511666199
0.295,0.0008863777648608984
0.3,0.0008683551702646152
0.305,0.0008500632024167161
0.31,0.0008315130862270203
0.315,0.0008127159263335051
0.32,0.0007936826961318437
0.325,0.0007744242259066427
0.33,0.0007549511900670936
0.335,0.0007352740935559394
0.34,0.0007154032575524604
0.34500000000000003,0.0006953488046279836
0.35000000000000003,0.0006751206435355355
0.355,0.0006547284538232218
0.36,0.0006341816704579726
0.365,0.0006134894686338484
0.37,0.0005926607489198875
0.375,0.000571704122881224
0.38,0.0005506278992829
0.385,0.0005294400709646253
0.39,0.0005081483024537752
0.395,0.00048675991836629747
0.4,0.00046528189263138055
0.405,0.0004437208385625819
0.41000000000000003,0.0004220829997882284
0.41500000000000004,0.0004003742420449128
0.42,0.00037860004582696943
0.425,0.00035676549987541286
0.43,0.00033487529547613834
0.435,0.0003129337215231854
0.44,0.0002909446602837049
0.445,0.00026891158378355463
0.45,0.0002468375507093781
0.455,0.00022472520370282403
0.46,0.0002025767669003518
0.465,0.00018039404355339492
0.47000000000000003,0.00015817841354649076
0.47500000000000003,0.00013593083061873916
0.48,0.0001136518190851595
0.485,9.134146984990922e-05
0.49,6.899943550401868e-05
0.495,4.662492430545398e-05
0.5,2.421669284554654e-05
0.505,1.7730372182610097e-06
0.51,-2.070821748019701e-05
0.515,-4.3229729479813465e-05
0.52,-6.579465464028172e-05
0.525,-8.840666286395602e-05
0.53,-0.00011106995674485567
0.535,-0.00013378929257477944
0.54,-0.0001565700038248036
0.545,-0.0001794180272235906
0.55,-0.00020233993155915488
0.555,-0.000225342949341033
0.56,-0.0002484350114709389
0.5650000000000001,-0.00027162478508577936
0.5700000000000001,-0.0002949217147500484
0.5750000000000001,-0.0003183360671904944
0.58,-0.0003418789797773872
0.585,-0.0003655625129659326
0.59,-0.0003893997069170643
0.595,-0.00041340464251529095
0.6,-0.00043759250699372526
0.605,-0.0004619796643615747
0.61,-0.00048658373080419533
0.615,-0.0005114236551909556
0.62,-0.0005365198047772282
0.625,-0.0005618940561245296
0.63,-0.0005875698911795974
0.635,-0.0006135724983478417
0.64,-0.0006399288782616164
0.645,-0.0006666679537722875
0.65,-0.0006938206834779783
0.655,-0.0007214201778235466
0.66,-0.0007495018164662341
0.665,-0.0007781033651694138
0.67,-0.0008072650899532256
0.675,-0.0008370298655745251
0.68,-0.000867443274606304
0.685,-0.0008985536924188742
0.6900000000000001,-0.0009304123522075743
0.6950000000000001,-0.0009630733828479455
0.7000000000000001,-0.0009965938107769602
0.705,-0.0010310335152952995
0.71,-0.001066455124685081
0.715,-0.0011029238383805679
0.72,-0.001140507158211488
0.725,-0.0011792745096039017
0.73,-0.0012192967317936638
0.735,-0.001260645414902094
0.74,-0.001303392061567603
0.745,-0.0013476070522679112
0.75,-0.0013933583971607278
0.755,-0.0014407102639422997
0.76,-0.0014897212815908089
0.765,-0.0015404426344984826
0.77,-0.0015929159806334322
0.775,-0.0016471712506473319
0.78,-0.001703224411033603
0.785,-0.0017610753012228147
0.79,-0.0018207056783905474
0.795,-0.0018820776202656047
0.8,-0.0019451324404322718
0.805,-0.0020097902580745617
0.81,-0.002075950332035782
0.8150000000000001,-0.002143492217586918
0.8200000000000001,-0.002212277737211325
0.8250000000000001,-0.0022821536815416693
0.8300000000000001,-0.0023529550835661582
0.835,-0.002424508849440478
0.84,-0.0024966374923056363
0.845,-0.0025691627074936546
0.85,-0.002641908549697568
0.855,-0.0027147040215768524
0.86,-0.002787384951495179
0.865,-0.002859795116070125
0.87,-0.0029317866408810353
0.875,-0.0030032197809765687
0.88,-0.0030739622347129387
0.885,-0.0031438881755411286
0.89,-0.0032128771950207828
0.895,-0.0032808133376005895
0.9,-0.0033475843767892576
0.905,-0.003413081438079721
0.91,-0.0034771990221081515
0.915,-0.0035398354279844576
0.92,-0.0036008935270848267
0.925,-0.003660281796570204
0.93,-0.0037179154929727555
0.935,-0.003773717831433904
0.9400000000000001,-0.00382762103608394
0.9450000000000001,-0.0038795671406371347
0.9500000000000001,-0.003929508443270912
0.9550000000000001,-0.003977407553061724
0.96,-0.004023237002986872
0.965,-0.004066978443050855
0.97,-0.0041086214630712565
0.975,-0.004148162125243143
0.98,-0.004185601309624101
0.985,-0.0042209429896189095
0.99,-0.004254192558460157
0.995,-0.004285355321209442
1,-0.004314435250187949
1.0050000000000001,-0.004341434075943368
1.01,-0.004366350752686255
1.0150000000000001,-0.004389181299367495
1.02,-0.004409918978925214
1.025,-0.004428554743128383
1.03,-0.00444507784350363
1.035,-0.00445947649418162
1.04,-0.004471738472948374
1.045,-0.004481851563141143
1.05,-0.004489803769680188
1.055,-0.004495583283512444
1.06,-0.00449917821426981
1.065,-0.004500576154287356
1.07,-0.004499763671733173
1.075,-0.0044967258511467295
1.08,-0.004491446002927505
1.085,-0.004483905648599511
1.09,-0.004474084857995213
1.095,-0.004461962972207769
1.1,-0.004447519698298163
1.105,-0.004430736515185166
1.11,-0.004411598291580244
1.115,-0.004390094991799254
1.12,-0.004366223337344515
1.125,-0.0043399883023364115
1.1300000000000001,-0.004311404347501573
1.135,-0.004280496336371255
1.1400000000000001,-0.004247300122697146
1.145,-0.004211862843114607
1.1500000000000001,-0.004174242987212483
1.155,-0.004134510342937503
1.16,-0.004092745924904404
1.165,-0.004049041985001217
1.17,-0.004003502179123624
1.175,-0.0039562419235110785
1.18,-0.0039073889234243495
1.185,-0.0038570838016900146
1.19,-0.0038054807016321647
1.195,-0.003752747694752431
1.2,-0.0036990667939745163
1.205,-0.0036446333625558608
1.21,-0.003589654719329702
1.215,-0.0035343477735402134
1.22,-0.003478935576662585
1.225,-0.0034236427527708263
1.23,-0.003368689860733054
1.235,-0.0033142868467326996
1.24,-0.0032606258577987644
1.245,-0.0032078737963244547
1.25,-0.0031561650886280626
1.2550000000000001,-0.0031055952018415275
1.26,-0.003056215457552879
1.2650000000000001,-0.003008029646544685
1.27,-0.0029609928433854877
1.2750000000000001,-0.002915012659551961
1.28,-0.0028699529765556634
1.285,-0.0028256399913532265
1.29,-0.002781870213359147
1.295,-0.0027384199015147385
1.3,-0.002695055339741414
1.305,-0.002651543328098962
1.31,-0.0026076613123591063
1.315,-0.002563206673993736
1.32,-0.0025180048363772495
1.325,-0.0024719159887554906
1.33,-0.0024248403654327164
1.335,-0.0023767221261185214
1.34,-0.002327551953837338
1.345,-0.0022773685169445394
1.35,-0.00222625893745005
1.355,-0.0021743583810306926
1.36,-0.002121848849489462
1.365,-0.0020689572270854834
1.37,-0.0020159526158203558
1.375,-0.0019631429917586845
1.3800000000000001,-0.0019108712184902807
1.385,-0.0018595104554155815
1.3900000000000001,-0.0018094589898251675
1.395,-0.0017611345008641545
1.4000000000000001,-0.0017149677361857052
1.405,-0.001671395560072416
1.41,-0.001630853328120551
1.415,-0.001593766567564963
1.42,-0.0015605419959528772
1.425,-0.0015315579881485582
1.43,-0.0015071546906237157
1.435,-0.0014876240680475824
1.44,-0.0014732002359687986
1.445,-0.0014640504725939717
1.45,-0.00146026730336814
1.455,-0.0014618620101676536
1.46,-0.0014687598353698697
1.465,-0.0014807970415821351
1.47,-0.0014977198704765023
1.475,-0.0015191853434300814
1.48,-0.0015447637841257576
1.485,-0.0015739429296293187
1.49,-0.0016061335262466416
1.495,-0.0016406763582775287
1.5,-0.0016768507009237786
1.5050000000000001,-0.0017138841938703776
1.51,-0.0017509640828335296
1.5150000000000001,-0.0017872496758042252
1.52,-0.001821885732252598
1.5250000000000001,-0.0018540163843185323
1.53,-0.00188279911825311
1.5350000000000001,-0.001907418350482941
1.54,-0.0019270982231275172
1.545,-0.0019411144011921987
1.55,-0.0019488048391873417
1.555,-0.0019495796484048007
1.56,-0.0019429302895382502
1.565,-0.0019284383062928986
1.57,-0.0019057836965877992
1.575,-0.001874752809413195
1.58,-0.0018352454018905463
1.585,-0.0017872802511375472
1.59,-0.001730998548346418
1.595,-0.001666664254424348
1.6,-0.0015946606909484073
1.605,-0.0015154828724399626
1.61,-0.0014297254249174968
1.615,-0.00133806633058264
1.62,-0.0012412471297031328
1.625,-0.0011400505415404098
1.6300000000000001,-0.0010352766928692775
1.635,-0.0009277192409794989
1.6400000000000001,-0.0008181426447536435
1.645,-0.0007072616875482619
1.6500000000000001,-0.0005957241174148213
1.655,-0.0004840969791920239
1.6600000000000001,-0.0003728569066280549
1.665,-0.00026238435574358276
1.67,-0.00015296152132576006
1.675,-4.47735049171057e-05
1.68,6.208779902306747e-05
1.685,0.00016761766782013828
1.69,0.0002718909194328484
1.695,0.0003750531891238995
1.7,0.0004773115489789247
1.705,0.0005789248261261001
1.71,0.000680193888539391
1.715,0.0007814520740409548
1.72,0.0008830558449358847
1.725,0.0009853756730970858
1.73,0.0010887871218181004
1.735,0.0011936621158877357
1.74,0.0013003604943199994
1.745,0.001409222114079056
1.75,0.0015205599844802407
1.7550000000000001,0.0016346551039572417
1.76,0.001751753775474916
1.7650000000000001,0.0018720681322413621
1.77,0.001995780374201066
1.7750000000000001,0.002123050799181423
1.78,0.0022540291560271724
1.7850000000000001,0.0023888682367420146
1.79,0.0025277380736943343
1.795,0.0026708387349691875
1.8,0.002818409614609447
1.805,0.0029707333496483165
1.81,0.003128133057227781
1.815,0.003290962403112005
1.82,0.0034595889631102764
1.825,0.0036343722640922653
1.83,0.003815638631810879
1.835,0.004003655399783871
1.84,0.004198607077754369
1.845,0.004400575747439716
1.85,0.004609527331981715
1.855,0.0048253046154228645
1.86,0.005047627132444898
1.865,0.005276097447818737
1.87,0.005510212983241974
1.875,0.005749382434689693
1.8800000000000001,0.005992945894496091
1.885,0.006240197944069924
1.8900000000000001,0.006490413103616463
1.895,0.006742873030229728
1.9000000000000001,0.006996894710064996
1.905,0.007251858612333418
1.9100000000000001,0.00750723542368016
1.915,0.007762609645217723
1.92,0.008017698096493948
1.925,0.00827236129946493
1.93,0.008526605851001241
1.935,0.008780576241619008
1.94,0.009034535117931506
1.945,0.009288831671915482
1.95,0.00954385861630068
1.955,0.009799999018162501
1.96,0.010057565067225818
1.965,0.010316731617530939
1.97,0.010577468032387068
1.975,0.010839472447784266
1.98,0.011102112992986865
1.985,0.011364380683925002
1.99,0.011624858525757112
1.995,0.011881710715536923
2,0.012132694655024793
2.005,0.012375196785908735
2.0100000000000002,0.012606291184962683
2.015,0.012822817666977153
2.02,0.013021474181376837
2.025,0.013198916900806533
2.0300000000000002,0.013351860846607309
2.035,0.013477174276327763
2.04,0.013571961278863372
2.045,0.013633628819821244
2.05,0.013659936490283003
2.055,0.013649029071584978
2.06,0.013599453464154082
2.065,0.013510162418723949
2.07,0.01338050789264702
2.075,0.013210226888965221
2.08,0.012999422518434455
2.085,0.012748542911636435
2.09,0.012458360560944345
2.095,0.012129954643964573
2.1,0.011764698747659542
2.105,0.011364256032200513
2.11,0.010930583141882588
2.115,0.010465943064633975
2.12,0.009972925735055382
2.125,0.009454473627181917
2.13,0.008913908110076295
2.1350000000000002,0.008354951185547079
2.14,0.007781736626121619
2.145,0.00719880466772233
2.15,0.006611075381922621
2.1550000000000002,0.006023797629858231
2.16,0.005442472911597877
2.165,0.004872756160050562
2.17,0.004320338178910546
2.1750000000000003,0.0037908165578203496
2.18,0.003289563151353595
2.185,0.002821596372147567
2.19,0.002391465620895367
2.195,0.0020031533661864654
2.2,0.0016599980646627242
2.205,0.0013646387153575697
2.21,0.0011189797765521585
2.215,0.0009241737257241809
2.22,0.0007806178369457046
2.225,0.0006879617483739524
2.23,0.0006451229367708344
2.235,0.0006503080838700748
2.24,0.0007010392813035715
2.245,0.0007941848831606299
2.25,0.000925995446043833
2.255,0.001092145534258885
2.2600000000000002,0.0012877822178879801
2.265,0.001507580911988667
2.27,0.0017458088846131737
2.275,0.0019963963918677254
2.2800000000000002,0.0022530150495872667
2.285,0.0025091627533218035
2.29,0.0027582541984942257
2.295,0.0029937157885166943
2.3000000000000003,0.003209083403001037
2.305,0.0033981011056539246
2.31,0.003554818419238945
2.315,0.0036736833505492906
2.32,0.003749628021977475
2.325,0.0037781436899828862
2.33,0.003755342226776229
2.335,0.0036780018860928044
2.34,0.0035435963638305286
2.345,0.003350307695197852
2.35,0.003097025194469409
2.355,0.0027833341544717507
2.36,0.00240949906259296
2.365,0.0019764463771013542
2.37,0.0014857512704609139
2.375,0.0009396311842021874
2.38,0.0003409467506125827
2.3850000000000002,-0.0003067920016755381
2.39,-0.0009994187369824143
2.395,-0.0017321096284939493
2.4,-0.002499395145940437
2.4050000000000002,-0.0032951916334010008
2.41,-0.004112857868704602
2.415,-0.004945279236707295
2.42,-0.0057849790882291766
2.4250000000000003,-0.006624253793998478
2.43,-0.0074553254076488345
2.435,-0.008270504083064048
2.44,-0.009062351651386469
2.445,-0.00982383808244325
2.45,-0.010548483805176964
2.455,-0.011230482783041808
2.46,-0.011864803486528677
2.465,-0.012447267093588505
2.47,-0.012974604022423628
2.475,-0.01344449099205716
2.48,-0.013855571092508708
2.485,-0.014207458886174138
2.49,-0.014500731588607648
2.495,-0.014736906250734863
2.5,-0.014918401984879794
2.505,-0.015048485974135663
2.5100000000000002,-0.015131202442347507
2.515,-0.015171284883420488
2.52,-0.01517405338793278
2.525,-0.015145300466012774
2.5300000000000002,-0.01509116994341317
2.535,-0.015018034011518588
2.54,-0.01493237324366608
2.545,-0.014840663456269339
2.5500000000000003,-0.014749271950714576
2.555,-0.014664364235038143
2.56,-0.014591821071086206
2.565,-0.014537164803159265
2.57,-0.014505493463412995
2.575,-0.014501421091542335
2.58,-0.014529022978236944
2.585,-0.014591785065521787
2.59,-0.014692557453490534
2.595,-0.014833512830532568
2.6,-0.015016111614899744
2.605,-0.01524107658218482
2.61,-0.015508380606873226
2.615,-0.015817251659903022
2.62,-0.016166199153488124
2.625,-0.016553064933697275
2.63,-0.01697510063501613
2.6350000000000002,-0.017429070840025526
2.64,-0.017911378806987833
2.645,-0.018418208827820876
2.65,-0.018945676977894583
2.6550000000000002,-0.019489980478978073
2.66,-0.02004753535644134
2.665,-0.020615092618002286
2.67,-0.021189824751920692
2.6750000000000003,-0.02176937675326216
2.68,-0.022351878866880885
2.685,-0.02293592146446066
2.69,-0.023520495613870412
2.695,-0.024104905631199897
2.7,-0.024688661953344668
2.705,-0.02527136383051076
2.71,-0.02585258151366349
2.715,-0.02643174682305691
2.72,-0.027008059376348526
2.725,-0.027580413577664064
2.73,-0.02814734902931886
2.735,-0.02870702463158972
2.74,-0.029257214536118546
2.745,-0.029795322489836826
2.75,-0.030318410050036222
2.755,-0.03082323371917892
2.7600000000000002,-0.03130628626275563
2.765,-0.031763838326224904
2.77,-0.03219197789173811
2.775,-0.03258664695377028
2.7800000000000002,-0.03294367677666911
2.785,-0.033258824868192406
2.79,-0.033527817977020265
2.795,-0.033746405682642484
2.8000000000000003,-0.03391042833907312
2.805,-0.03401590132865623
2.81,-0.034059115072200837
2.815,-0.034036747480802
2.82,-0.033945983027804716
2.825,-0.0337846308023889
2.83,-0.03355123305619663
2.835,-0.03324515595445597
2.84,-0.03286665540431159
2.845,-0.03241691275121979
2.85,-0.03189803754974137
2.855,-0.0313130372530892
2.86,-0.03066575625236692
2.865,-0.029960788964171974
2.87,-0.029203373368532393
2.875,-0.028399272347572547
2.88,-0.02755465027640896
2.8850000000000002,-0.02667595160781808
2.89,-0.02576978683565807
2.895,-0.02484282947500095
2.9,-0.02390172584750141
2.9050000000000002,-0.022953017767068207
2.91,-0.02200307686753762
2.915,-0.021058048391676187
2.92,-0.020123801773502776
2.9250000000000003,-0.019205885236573923
2.93,-0.0183094818182573
2.935,-0.017439364644561497
2.94,-0.016599849885091323
2.945,-0.01579474660495868
2.95,-0.015027303691387748
2.955,-0.014300155119786708
2.96,-0.01361526592579985
2.965,-0.01297388219693968
2.97,-0.012376489000901722
2.975,-0.011822780274164326
2.98,-0.011311644234883794
2.985,-0.01084116689777823
2.99,-0.010408654896990874
2.995,-0.010010677277173356
3,-0.009643124428660983
3.005,-0.009301281131215991
3.0100000000000002,-0.008979909880874718
3.015,-0.008673340368482163
3.02,-0.008375561131148894
3.025,-0.008080309913654013
3.0300000000000002,-0.0077811600215618735
3.035,-0.007471600783525791
3.04,-0.007145111054189822
3.045,-0.006795225410349909
3.0500000000000003,-0.006415593294291501
3.055,-0.006000031843825733
3.06,-0.00554257353357728
3.065,-0.005037510040274371
3.0700000000000003,-0.004479433915907547
3.075,-0.0038632796673280503
3.08,-0.003184365664239822
3.085,-0.002438437930482394
3.09,-0.0016217163734725312
3.095,-0.0007309434806921153
3.1,0.00023656492159476018
3.105,0.001282867518728805
3.11,0.0024093447482429775
3.115,0.003616646263642651
3.12,0.004904639591625999
3.125,0.006272361289330752
3.13,0.00771797245975896
3.1350000000000002,0.009238721142345743
3.14,0.010830914661010419
3.145,0.012489905268456782
3.15,0.014210092232546486
3.1550000000000002,0.01598494286491825
3.16,0.017807034034295767
3.165,0.019668114671517748
3.17,0.021559188903234966
3.1750000000000003,0.023470618913626288
3.18,0.0253922464681842
3.185,0.02731353214981247
3.19,0.02922371157275111
3.1950000000000003,0.03111196794003392
3.2,0.03296762010627939
3.205,0.03478032467497033
3.21,0.03654028955707385
3.215,0.03823849489427281
3.22,0.0398669154403245
3.225,0.04141873661062285
3.23,0.04288855472408398
3.235,0.04427255077368028
3.24,0.04556862666484218
3.245,0.046776493497196585
3.25,0.047897703285413276
3.255,0.048935618538175976
3.2600000000000002,0.04989531819449673
3.265,0.050783443225949174
3.27,0.051607990254204386
3.275,0.05237806618840191
3.2800000000000002,0.05310362050803427
3.285,0.05379517383596473
3.29,0.05446356148517277
3.295,0.05511970861799645
3.3000000000000003,0.05577444973544783
3.305,0.05643839991767542
3.31,0.05712187928860383
3.315,0.05783488641123717
3.3200000000000003,0.0585871115390556
3.325,0.05938797748771959
3.33,0.06024669469723926
3.335,0.06117231781840985
3.34,0.062173793510010275
3.345,0.06325999242066073
3.35,0.06443972175308942
3.355,0.06572171760941542
3.36,0.06711461795321325
3.365,0.06862691730380241
3.37,0.07026690339233507
3.375,0.07204257447314433
3.38,0.07396153449224947
3.3850000000000002,0.07603086255984959
3.39,0.07825695367398271
3.395,0.08064532962620959
3.4,0.08320042237825194
3.4050000000000002,0.08592533650997192
3.41,0.08882160195105182
3.415,0.09188893235113654
3.42,0.09512500735770031
