# Strata Output: Acceleration Time Series
# Project:TST site
# Time (s),S-1-M-LOMAP\GIL067.AT2,
0,1.6667552164133618e-05
0.005,1.4956063412834305e-05
0.01,1.3258321739523538e-05
0.015,1.1573998251928956e-05
0.02,9.903344815593091e-06
0.025,8.247053694609862e-06
0.03,6.606129059456724e-06
0.035,4.98178731569004e-06
0.04,3.3753761245536907e-06
0.045,1.7882928654929077e-06
0.05,2.2189359700365316e-07
0.055,-1.3225993053743091e-06
0.06,-2.8441729594561692e-06
0.065,-4.342067852445522e-06
0.07,-5.815783838791957e-06
0.075,-7.265051381130827e-06
0.08,-8.689776734249147e-06
0.085,-1.0089973096366782e-05
0.09,-1.1465692456438102e-05
0.095,-1.2816974135912852e-05
0.1,-1.414382277169062e-05
0.105,-1.5446219058388373e-05
0.11,-1.6724153764310415e-05
0.115,-1.7977665986584617e-05
0.12,-1.920686572094735e-05
0.125,-2.0411929002227476e-05
0.13,-2.159306652958125e-05
0.135,-2.2750477941949246e-05
0.14,-2.3884309388664228e-05
0.145,-2.499463068357903e-05
0.15,-2.60814419456573e-05
0.155,-2.7144711886644502e-05
0.16,-2.818444360096964e-05
0.165,-2.9200759445723758e-05
0.17,-3.0193992873584216e-05
0.17500000000000002,-3.1164771183747546e-05
0.18,-3.211407040605359e-05
0.185,-3.3043225008542115e-05
0.19,-3.395388265436866e-05
0.195,-3.4847907137457545e-05
0.2,-3.5727247017896465e-05
0.20500000000000002,-3.6593798271025366e-05
0.21,-3.744929177776808e-05
0.215,-3.8295229366484415e-05
0.22,-3.913287770297363e-05
0.225,-3.9963313197590574e-05
0.23,-4.078749867226864e-05
0.23500000000000001,-4.160636722922702e-05
0.24,-4.242089040371727e-05
0.245,-4.323211436859607e-05
0.25,-4.4041157050123876e-05
0.255,-4.4849168882283575e-05
0.26,-4.565726872123827e-05
0.265,-4.6466472455723075e-05
0.27,-4.72776329890966e-05
0.275,-4.809140625757044e-05
0.28,-4.8908250237805974e-05
0.28500000000000003,-4.972845609370348e-05
0.29,-5.0552205521938884e-05
0.295,-5.137964723471013e-05
0.3,-5.2210986627251466e-05
0.305,-5.304658374416292e-05
0.31,-5.388705359667177e-05
0.315,-5.4733360182177716e-05
0.32,-5.5586892828656337e-05
0.325,-5.644951347599571e-05
0.33,-5.7323567247346635e-05
0.335,-5.8211855963877626e-05
0.34,-5.911758242382408e-05
0.34500000000000003,-6.004427964677381e-05
0.35000000000000003,-6.099574122619245e-05
0.355,-6.197596647979533e-05
0.36,-6.29891284976625e-05
0.365,-6.403956761570935e-05
0.37,-6.513180912901459e-05
0.375,-6.627060343134996e-05
0.38,-6.746098798666185e-05
0.385,-6.870837261263373e-05
0.39,-7.001865075115158e-05
0.395,-7.139833970809177e-05
0.4,-7.285475179754169e-05
0.405,-7.439619681675157e-05
0.41000000000000003,-7.603221414672185e-05
0.41500000000000004,-7.777383106978194e-05
0.42,-7.96338425373227e-05
0.425,-8.162710783532099e-05
0.43,-8.377086132208397e-05
0.435,-8.608503886950753e-05
0.44,-8.859262845450864e-05
0.445,-9.132006317638657e-05
0.45,-9.429768633888309e-05
0.455,-9.75603305708262e-05
0.46,-0.00010114806385413434
0.465,-0.00010510716459273513
0.47000000000000003,-0.0001094913948310306
0.47500000000000003,-0.00011436364805545023
0.48,-0.00011979805726120162
0.485,-0.00012588266308977331
0.49,-0.00013272275926434692
0.495,-0.0001404450489787874
0.5,-0.0001492027463560909
0.505,-0.00015918171365930593
0.51,-0.00017060757889063476
0.515,-0.0001837534217242694
0.52,-0.0001989468512278578
0.525,-0.0002165738142690835
0.53,-0.00023707387896940613
0.535,-0.00026091789541594126
0.54,-0.0002885549645211548
0.545,-0.0003203158232973271
0.55,-0.00035627252989715
0.555,-0.00039608654713287473
0.56,-0.0004389177956973296
0.5650000000000001,-0.0004834772396249176
0.5700000000000001,-0.0005282476600122582
0.5750000000000001,-0.0005717908361853536
0.58,-0.0006129947014613436
0.585,-0.0006511662972572377
0.59,-0.0006859928471306694
0.595,-0.0007174502394623648
0.6,-0.0007457091040838329
0.605,-0.0007710491922678709
0.61,-0.0007937888034971183
0.615,-0.0008142425081869468
0.62,-0.0008327091521691079
0.625,-0.0008494735103888973
0.63,-0.00086480120086955
0.635,-0.0008789185057543131
0.64,-0.0008919817000324826
0.645,-0.0009040463139770155
0.65,-0.0009150479663469061
0.655,-0.0009248048358702074
0.66,-0.000933046111324982
0.665,-0.0009394618656356707
0.67,-0.0009437616531218242
0.675,-0.0009457254076360577
0.68,-0.0009452329699699784
0.685,-0.0009422673919355196
0.6900000000000001,-0.0009368984784112865
0.6950000000000001,-0.000929260610808057
0.7000000000000001,-0.0009195375832606977
0.705,-0.0009079585163834729
0.71,-0.0008948002458382929
0.715,-0.0008803877508542063
0.72,-0.0008650844620834905
0.725,-0.0008492679803652666
0.73,-0.0008332943573291035
0.735,-0.0008174609829527419
0.74,-0.0008019762598876312
0.745,-0.0007869351117034486
0.75,-0.0007722962429663427
0.755,-0.0007578671018597705
0.76,-0.0007433138628717359
0.765,-0.0007282096867219736
0.77,-0.0007121156360237044
0.775,-0.0006946719467032279
0.78,-0.0006756751990550278
0.785,-0.0006551251914414383
0.79,-0.00063323344021937
0.795,-0.0006103908697760778
0.8,-0.0005871008590322002
0.805,-0.0005638953758486075
0.81,-0.0005412563098683976
0.8150000000000001,-0.0005195550253375903
0.8200000000000001,-0.0004990103609840377
0.8250000000000001,-0.0004796632608767384
0.8300000000000001,-0.00046137342441737034
0.835,-0.0004438434195808628
0.84,-0.0004266622473034324
0.845,-0.00040935108187435275
0.85,-0.000391406611110867
0.855,-0.0003723575244334329
0.86,-0.0003518445108345953
0.865,-0.0003297013881233289
0.87,-0.00030599282126738027
0.875,-0.0002809832906801927
0.88,-0.0002550572105682442
0.885,-0.00022863794094737862
0.89,-0.00020213962816492714
0.895,-0.00017594908601212142
0.9,-0.00015041288726432294
0.905,-0.0001258105485783178
0.91,-0.00010231163161058504
0.915,-7.992921218582331e-05
0.92,-5.849369866475647e-05
0.925,-3.767213061405482e-05
0.93,-1.7038848905895213e-05
0.935,3.825362575813709e-06
0.9400000000000001,2.5241225726428212e-05
0.9450000000000001,4.73692580664226e-05
0.9500000000000001,7.018203857051921e-05
0.9550000000000001,9.346649732457433e-05
0.96,0.0001168524870709917
0.965,0.00013985182102620105
0.97,0.00016186585374034727
0.975,0.00018211291242370054
0.98,0.00019947494069406422
0.985,0.00021235075337457536
0.99,0.00021866192234660487
0.995,0.0002161204309794047
1,0.0002027336003156942
1.0050000000000001,0.00017737005402076913
1.01,0.00014015215544787863
1.0150000000000001,9.252359640264574e-05
1.02,3.699576672005635e-05
1.025,-2.3310992327653695e-05
1.03,-8.518630399238822e-05
1.035,-0.00014577955235489805
1.04,-0.00020287941605499665
1.045,-0.00025497708422039187
1.05,-0.00030115403850395717
1.055,-0.0003409025016944841
1.06,-0.00037397712302950694
1.065,-0.0004003060847910611
1.07,-0.0004199310247199731
1.075,-0.00043293914040217635
1.08,-0.00043937563487001803
1.085,-0.0004391502431123932
1.09,-0.00043198117310889946
1.095,-0.00041745236503110903
1.1,-0.00039524937861689995
1.105,-0.00036554207841833455
1.11,-0.0003293388903826836
1.115,-0.00028856316058984186
1.12,-0.00024569156978639995
1.125,-0.00020303631514004714
1.1300000000000001,-0.00016201276294782236
1.135,-0.000122823477553382
1.1400000000000001,-8.479863932039937e-05
1.145,-4.724134070648283e-05
1.1500000000000001,-1.028902554065008e-05
1.155,2.4715073540815374e-05
1.16,5.550496997839327e-05
1.165,7.955903698472883e-05
1.17,9.46903795749698e-05
1.175,9.924767418570831e-05
1.18,9.192725127097506e-05
1.185,7.146643188681072e-05
1.19,3.6585754898465234e-05
1.195,-1.3610541561771248e-05
1.2,-7.894860134695459e-05
1.205,-0.0001577198589646554
1.21,-0.00024689488950932606
1.215,-0.00034303056096957627
1.22,-0.0004434045021878247
1.225,-0.0005467700895506579
1.23,-0.000653391432198971
1.235,-0.0007644336147866487
1.24,-0.0008810154938273469
1.245,-0.0010032045409956562
1.25,-0.0011291813379837312
1.2550000000000001,-0.0012548919091277622
1.26,-0.0013745323866399062
1.2650000000000001,-0.0014818843159605131
1.27,-0.0015719772661679924
1.2750000000000001,-0.001642303925189166
1.28,-0.0016931142642233026
1.285,-0.00172685310705465
1.29,-0.001747092191478488
1.295,-0.0017572656560228366
1.3,-0.0017594502098683528
1.305,-0.0017535086451895756
1.31,-0.0017369451521203345
1.315,-0.0017055788869133246
1.32,-0.0016547420703277498
1.325,-0.0015804968540122258
1.33,-0.001480506460215114
1.335,-0.001354498315500343
1.34,-0.00120442379263899
1.345,-0.0010343708510294387
1.35,-0.0008501758912816355
1.355,-0.0006586882529581408
1.36,-0.00046680443256934555
1.365,-0.0002805836520534187
1.37,-0.00010478461114148191
1.375,5.7065423627502337e-05
1.3800000000000001,0.00020229956831445224
1.385,0.00032883883734211174
1.3900000000000001,0.0004352608883650957
1.395,0.0005210995099289771
1.4000000000000001,0.0005870231657208298
1.405,0.0006346199704348655
1.41,0.0006658353458251492
1.415,0.0006823774120824399
1.42,0.0006854187452682282
1.425,0.0006757335942479335
1.43,0.0006541946500167838
1.435,0.0006224099138194214
1.44,0.0005831941609165678
1.445,0.0005405430383753842
1.45,0.0004989119930468032
1.455,0.0004619636300393598
1.46,0.0004313690171999381
1.465,0.0004064004690643969
1.47,0.00038473428257697416
1.475,0.00036420323922068987
1.48,0.0003446071651055239
1.485,0.0003285939651577134
1.49,0.0003212010505748553
1.495,0.000328433721157767
1.5,0.0003556014643125082
1.5050000000000001,0.0004058857229651291
1.51,0.00047922011888826044
1.5150000000000001,0.0005715042253327162
1.52,0.0006744476599661857
1.5250000000000001,0.0007765128869888004
1.53,0.0008650875468696325
1.5350000000000001,0.0009292934193401023
1.54,0.000962356256326966
1.545,0.0009627183195931436
1.55,0.000933879813650127
1.555,0.0008835823034595591
1.56,0.0008228563617420167
1.565,0.0007648285241644957
1.57,0.0007227770966615824
1.575,0.0007073291098439783
1.58,0.0007236367118525546
1.585,0.0007699312086039497
1.59,0.0008384151536380866
1.595,0.0009183389881267123
1.6,0.0010000957509290374
1.605,0.0010787233488478475
1.61,0.0011554055239785367
1.615,0.0012363508132688164
1.62,0.001329556469248557
1.625,0.0014409124107544354
1.6300000000000001,0.0015713407676672527
1.635,0.001716028634347896
1.6400000000000001,0.0018656672346947444
1.645,0.0020087245773141786
1.6500000000000001,0.0021337085185379008
1.655,0.0022309251329503516
1.6600000000000001,0.002293714256961692
1.665,0.0023191704032119926
1.67,0.0023081871346778233
1.675,0.0022647523013198828
1.68,0.0021948435322890754
1.685,0.0021055954243001415
1.69,0.002005159106963651
1.695,0.0019029427928407595
1.7,0.0018094312505632165
1.705,0.001735216356966425
1.71,0.0016900085174233574
1.715,0.0016829999823142201
1.72,0.0017249299574449459
1.725,0.0018301291586309888
1.73,0.0020157797410835423
1.735,0.0022970532533815305
1.74,0.002679738353797622
1.745,0.0031540015406492363
1.75,0.0036925518520473715
1.7550000000000001,0.004254320567090316
1.76,0.004792475389018
1.7650000000000001,0.005264247483963742
1.77,0.005639704393425491
1.7750000000000001,0.005906918015670887
1.78,0.0060718637368979995
1.7850000000000001,0.006152881558186016
1.79,0.00617137089086918
1.795,0.006141963754042689
1.8,0.006066017377584261
1.805,0.005931324954280145
1.81,0.005718431568269369
1.815,0.005410814487563223
1.82,0.0050041548137230085
1.825,0.004510329183422923
1.83,0.003954463984295294
1.835,0.0033668218242038465
1.84,0.0027734741389191108
1.845,0.002189688407631027
1.85,0.0016181522381375707
1.855,0.0010517002294435486
1.86,0.00047822245332866626
1.865,-0.00011515328689491395
1.87,-0.0007402965770650263
1.875,-0.0014081870756969882
1.8800000000000001,-0.0021288813286082092
1.885,-0.002909717701192055
1.8900000000000001,-0.003751762667090357
1.895,-0.004645758139996867
1.9000000000000001,-0.005569124944484039
1.905,-0.00648551104696222
1.9100000000000001,-0.007348260379720657
1.915,-0.008108326280724592
1.92,-0.008725047232276262
1.925,-0.009175861688872888
1.93,-0.009460485687150908
1.935,-0.009597325787982848
1.94,-0.009613758997396093
1.945,-0.009534870752731413
1.95,-0.00937547577986298
1.955,-0.009137932455607806
1.96,-0.008815221636609223
1.965,-0.008396827720260625
1.97,-0.00787463950459117
1.975,-0.007246788440601098
1.98,-0.006518484225091767
1.985,-0.005700272979557702
1.99,-0.0048053045955278005
1.995,-0.003847393976674561
2,-0.0028405953964351542
2.005,-0.0017994863231671995
2.0100000000000002,-0.0007388025302625678
2.015,0.0003278811938455129
2.02,0.0013891850065010085
2.025,0.00243531219502461
2.0300000000000002,0.003456096150969733
2.035,0.004439455022164675
2.04,0.005371296576290684
2.045,0.006235971054106745
2.05,0.007015900362547349
2.055,0.007690766815103293
2.06,0.008238240693279565
2.065,0.008637371900121267
2.07,0.008873370229959657
2.075,0.008941367050683352
2.08,0.008847936710050533
2.085,0.008610874892741831
2.09,0.008257922785775147
2.095,0.007823967629504557
2.1,0.007345668051036616
2.105,0.00685366099852968
2.11,0.0063645908054790175
2.115,0.00587617775839565
2.12,0.005367540814565979
2.125,0.004804963630137891
2.13,0.004151583912591171
2.1350000000000002,0.0033784040034565144
2.14,0.0024733886772627736
2.145,0.0014456875918710172
2.15,0.00032372690114529254
2.1550000000000002,-0.0008516359127291092
2.16,-0.002035995856165211
2.165,-0.003189147396662373
2.17,-0.004279366110107558
2.1750000000000003,-0.005283580677788756
2.18,-0.006184925208408967
2.185,-0.006970479110024519
2.19,-0.00763119401377881
2.195,-0.008163566503608867
2.2,-0.008570799629892779
2.205,-0.008861683062699511
2.21,-0.009047404474600293
2.215,-0.009137659628886486
2.22,-0.0091368719177612
2.225,-0.009040796370129263
2.23,-0.008834949504366595
2.235,-0.008497768073568513
2.24,-0.008010062614501212
2.245,-0.007367850937930576
2.25,-0.0065917639019887194
2.255,-0.005726891989690123
2.2600000000000002,-0.004832135730801551
2.265,-0.003963906540285037
2.27,-0.003161513473714389
2.275,-0.002440012167847603
2.2800000000000002,-0.0017925168789701164
2.285,-0.0012000561238677426
2.29,-0.0006442593355469922
2.295,-0.00011738237141093636
2.3000000000000003,0.0003741102041325874
2.305,0.0008127356866039667
2.31,0.001177157595481659
2.315,0.0014496211534691338
2.32,0.0016212330738841181
2.325,0.0016942284864922177
2.33,0.0016807440902804323
2.335,0.001597513527003771
2.34,0.0014571970454763867
2.345,0.0012599382686973113
2.35,0.000990595378387813
2.355,0.0006250330070689875
2.36,0.00014334731675637267
2.365,-0.00045690092726574324
2.37,-0.0011544529419696484
2.375,-0.0019076108754708765
2.38,-0.0026641936819145184
2.3850000000000002,-0.003372929985521153
2.39,-0.00399195322842239
2.395,-0.004492620765945147
2.4,-0.004859262951227702
2.4050000000000002,-0.005086863323910358
2.41,-0.005178748905248945
2.415,-0.005145183240823222
2.42,-0.005002449199759091
2.4250000000000003,-0.004772109613123654
2.43,-0.00448120744747235
2.435,-0.004163763884367618
2.44,-0.003861304877518061
2.445,-0.0036185557923602927
2.45,-0.0034734646005136443
2.455,-0.0034466455820945457
2.46,-0.003537841326282983
2.465,-0.0037323976700301743
2.47,-0.0040129685294022655
2.475,-0.004368211421547587
2.48,-0.00479385421544629
2.485,-0.005287800069260506
2.49,-0.005844075095970507
2.495,-0.006449293330810119
2.5,-0.007082935784880657
2.505,-0.007721405868946584
2.5100000000000002,-0.008344937958079508
2.515,-0.008944899549618884
2.52,-0.009527662931878003
2.525,-0.010111855535658725
2.5300000000000002,-0.010718783661734385
2.535,-0.011359413874142639
2.54,-0.012023339863628798
2.545,-0.012674775303003987
2.5500000000000003,-0.013258095083690703
2.555,-0.01371151516911948
2.56,-0.01398346134850578
2.565,-0.014044253154234387
2.57,-0.01388780081442209
2.575,-0.013523525688615168
2.58,-0.012964358995608428
2.585,-0.012218645825974877
2.59,-0.011290684818377833
2.595,-0.01018854473272119
2.6,-0.008932776890113476
2.605,-0.007559070002433498
2.61,-0.006112330728485043
2.615,-0.004636067056794845
2.62,-0.0031641921769481694
2.625,-0.0017195061894662717
2.63,-0.00031694200666520036
2.6350000000000002,0.0010333977250711393
2.64,0.002325365778235204
2.645,0.0035552860002232194
2.65,0.004717207401170365
2.6550000000000002,0.005797433955680234
2.66,0.006774374654363176
2.665,0.007626332282128257
2.67,0.008342423853877522
2.6750000000000003,0.008928107184057215
2.68,0.009400577426622835
2.685,0.009776945253167748
2.69,0.01006298222030457
2.695,0.01024899922759301
2.7,0.010314022822822115
2.705,0.010234424999356983
2.71,0.009991984310627141
2.715,0.009578829278943927
2.72,0.008999572730633678
2.725,0.008271442127737689
2.73,0.00742207830843179
2.735,0.006484579592090326
2.74,0.005491046356391103
2.745,0.004467385207236439
2.75,0.003431652609303447
2.755,0.0023960968379802315
2.7600000000000002,0.0013709578442292216
2.765,0.00036740365405017375
2.77,-0.0006018882802954162
2.775,-0.0015239224784467198
2.7800000000000002,-0.002386522344521064
2.785,-0.0031783433783161416
2.79,-0.003888597686231316
2.795,-0.004508172355001148
2.8000000000000003,-0.005032503586006104
2.805,-0.005464343477410038
2.81,-0.0058136371839339
2.815,-0.0060930957498727
2.82,-0.006310900940611267
2.825,-0.006464502641828156
2.83,-0.00653979730868475
2.835,-0.006517312889309815
2.84,-0.006382645024041014
2.845,-0.00613515522315912
2.85,-0.005789314741932786
2.855,-0.00536724354361599
2.86,-0.004886418912000949
2.865,-0.004349467923152471
2.87,-0.0037414222914180667
2.875,-0.0030353892462288653
2.88,-0.002203714275052099
2.8850000000000002,-0.0012301805276851506
2.89,-0.0001188098344156485
2.895,0.001104545371111374
2.9,0.0023995902178254504
2.9050000000000002,0.0037254645676622652
2.91,0.0050542177868955615
2.915,0.006376515720951541
2.92,0.007697106822922354
2.9250000000000003,0.009024172079799095
2.93,0.010359585013697572
2.935,0.011694559521884997
2.94,0.013010281773545811
2.945,0.014280291164537072
2.95,0.015472229841004647
2.955,0.016549180068177124
2.96,0.017472025526974203
2.965,0.018202947962227416
2.97,0.018708164349466157
2.975,0.01895810958473122
2.98,0.01892598502450668
2.985,0.018588244015306336
2.99,0.017929967736121214
2.995,0.016954088492848966
3,0.01568953049438571
3.005,0.01419317317239213
3.0100000000000002,0.012544142918872231
3.015,0.010832972192004953
3.02,0.009149523873425559
3.025,0.007572226740008627
3.0300000000000002,0.0061594914049440935
3.035,0.004944019334625622
3.04,0.003931377059631639
3.045,0.0031036338977596454
3.0500000000000003,0.002426715943972904
3.055,0.0018586410071025211
3.06,0.0013568547370397268
3.065,0.0008851623839096087
3.0700000000000003,0.000421132100235405
3.075,-3.748357698965885e-05
3.08,-0.0004710670949155092
3.085,-0.0008441618806990811
3.09,-0.0011183469756176556
3.095,-0.0012671624609510931
3.1,-0.0012869384768308281
3.105,-0.0011991161560999857
3.11,-0.0010432424928672
3.115,-0.0008635589444018363
3.12,-0.0006943260447797231
3.125,-0.0005486762978233954
3.13,-0.0004133622306790165
3.1350000000000002,-0.00024919712681508707
3.14,4.195503770183256e-06
3.145,0.0004207667528676134
3.15,0.0010790652619631714
3.1550000000000002,0.0020536303470152016
3.16,0.003408016109104456
3.165,0.005189266593649766
3.17,0.007422529582938882
3.1750000000000003,0.010105260077205693
3.18,0.013202839960707372
3.185,0.016648965893699276
3.19,0.0203527460224091
3.1950000000000003,0.024210970077890297
3.2,0.028121489092247345
3.205,0.03199389203194889
3.21,0.035755722586276815
3.215,0.03935427280105442
3.22,0.04275470806485948
3.225,0.0459355465996713
3.23,0.04888299906739906
3.235,0.05158619959302886
3.24,0.05403520702315114
3.245,0.056222345699342126
3.25,0.05814545190558887
3.255,0.05981026733172318
3.2600000000000002,0.061229758102660306
3.265,0.06242025822879011
3.27,0.06339633699253018
3.275,0.06416669487768817
3.2800000000000002,0.06473245072672572
3.285,0.06508826253407772
3.29,0.06522639733239824
3.295,0.06514334709238917
3.3000000000000003,0.06484719605369542
3.305,0.06436246462085823
3.31,0.06372929408770193
3.315,0.06299631995582894
3.3200000000000003,0.062209924820005744
3.325,0.061404143541905876
3.33,0.060594190899825234
3.335,0.05977398221058319
3.34,0.05891655411148142
3.345,0.05797657711993545
3.35,0.05689477860243984
3.355,0.05560383233183164
3.36,0.05403458424837053
3.365,0.05212154168110991
3.37,0.049807383823557205
3.375,0.04704681735269124
3.38,0.0438100175052332
