# Strata Output: Acceleration Time Series
# Project:TST site
# Time (s),S-1-M-ITALY\B-CTR000.AT2,
0,1.1743795031206353e-06
0.0024,1.1613426460839703e-06
0.0048,1.176615968106833e-06
0.0072,1.1614841110603247e-06
0.0096,1.1772224330834978e-06
0.011999999999999999,1.1635505760474186e-06
0.0144,1.1779488980635862e-06
0.0168,1.1695770410267123e-06
0.0192,1.1962603630475679e-06
0.021599999999999998,1.2031085060101594e-06
0.023999999999999997,1.254066828025307e-06
0.026399999999999996,1.295434970995897e-06
0.0288,1.387633293011273e-06
0.0312,1.479901435968212e-06
0.0336,1.6275447579895063e-06
0.036,1.7770929009528377e-06
0.0384,1.9888862229790938e-06
0.040799999999999996,2.2021443659359184e-06
0.043199999999999995,2.479822687953265e-06
0.045599999999999995,2.7591758309209404e-06
0.047999999999999994,3.0994941529334533e-06
0.05039999999999999,3.440372295894245e-06
0.05279999999999999,3.837530617914257e-06
0.05519999999999999,4.234493760880796e-06
0.0576,4.68832208289511e-06
0.06,5.137545225861428e-06
0.0624,5.641683547881579e-06
0.0648,6.145061690846176e-06
0.0672,6.702350012864285e-06
0.0696,7.26307815582437e-06
0.072,7.886316477840032e-06
0.0744,8.522444620810217e-06
0.0768,9.236532942825417e-06
0.07919999999999999,9.972361085787749e-06
0.08159999999999999,1.0791299407802708e-05
0.08399999999999999,1.1636727550772058e-05
0.08639999999999999,1.256741587278631e-05
0.08879999999999999,1.3531744015751535e-05
0.09119999999999999,1.458393233777014e-05
0.09359999999999999,1.567081048073487e-05
0.09599999999999999,1.684464880275246e-05
0.09839999999999999,1.803687694571799e-05
0.10079999999999999,1.9299965267731532e-05
0.10319999999999999,2.0561093410695837e-05
0.10559999999999999,2.1868631732719984e-05
0.10799999999999998,2.3151559875676977e-05
0.11039999999999998,2.4459598197695227e-05
0.11279999999999998,2.572517634065931e-05
0.1152,2.7008714662679614e-05
0.1176,2.8250842805637006e-05
0.12,2.951198112765422e-05
0.1224,3.073820927061942e-05
0.1248,3.199464759263655e-05
0.12719999999999998,3.321847573559464e-05
0.1296,3.445886405761475e-05
0.13199999999999998,3.5652542200582944e-05
0.1344,3.6848380522601313e-05
0.13679999999999998,3.7980458665561077e-05
0.1392,3.910874698758178e-05
0.14159999999999998,4.018927513054326e-05
0.144,4.129221345256421e-05
0.14639999999999997,4.239394159552685e-05
0.1488,4.358347991754155e-05
0.15119999999999997,4.484350806050548e-05
0.1536,4.626479638252245e-05
0.156,4.781952452548669e-05
0.15839999999999999,4.957991284750263e-05
0.1608,5.149749099046896e-05
0.16319999999999998,5.3637929312489824e-05
0.1656,5.593800745544803e-05
0.16799999999999998,5.844394577746016e-05
0.1704,6.107252392042414e-05
0.17279999999999998,6.384596224245031e-05
0.1752,6.667304038540672e-05
0.17759999999999998,6.958747870742588e-05
0.18,7.251955685038624e-05
0.18239999999999998,7.55239951724143e-05
0.1848,7.853657331537337e-05
0.18719999999999998,8.16185116373885e-05
0.1896,8.472758978035445e-05
0.19199999999999998,8.794902810237402e-05
0.1944,9.12541062453333e-05
0.19679999999999997,9.471754456735483e-05
0.1992,9.828262271031841e-05
0.20159999999999997,0.00010198206103233985
0.204,0.00010571213917528968
0.20639999999999997,0.00010947007749731557
0.20879999999999999,0.00011314965564028113
0.21119999999999997,0.00011677309396229975
0.21359999999999998,0.00012026717210525864
0.21599999999999997,0.00012369711042727697
0.21839999999999998,0.0001270131885702371
0.22079999999999997,0.00013027812689226693
0.22319999999999998,0.0001334207050352236
0.22559999999999997,0.0001364826433572395
0.22799999999999998,0.00013937922150020551
0.2304,0.00014214965982223436
0.23279999999999998,0.0001447282379651867
0.2352,0.00014717467628721216
0.23759999999999998,0.00014944025443017008
0.24,0.00015159569275219345
0.24239999999999998,0.00015357627089514529
0.2448,0.0001554062092171717
0.24719999999999998,0.00015697478736013308
0.2496,0.00015829072568216074
0.252,0.00015925780382511215
0.25439999999999996,0.0001598942421471306
0.2568,0.00016010232029009338
0.2592,0.00015991575861212042
0.2616,0.00015924083675507959
0.26399999999999996,0.0001581162750770938
0.26639999999999997,0.00015647335322006248
0.2688,0.00015436679154207274
0.2712,0.0001517348696850346
0.27359999999999995,0.00014863630800705612
0.27599999999999997,0.00014503738615001568
0.2784,0.0001410288244720424
0.2808,0.00013660240261500315
0.28319999999999995,0.00013187634093701872
0.28559999999999997,0.000126856419079987
0.288,0.00012165435740199965
0.2904,0.00011624093554495799
0.29279999999999995,0.00011071237386698311
0.29519999999999996,0.00010502195200994696
0.2976,9.924089033196665e-05
0.3,9.33184684749264e-05
0.30239999999999995,8.731640679693968e-05
0.30479999999999996,8.117798493990623e-05
0.3072,7.498742326192526e-05
0.3096,6.87330014048863e-05
0.312,6.252943972690177e-05
0.31439999999999996,5.6360017869867725e-05
0.31679999999999997,5.034145619188795e-05
0.3192,4.4437384334846814e-05
0.3216,3.8692322656863374e-05
0.32399999999999995,3.301285079982748e-05
0.32639999999999997,2.743463912184933e-05
0.3288,2.1891817264806486e-05
0.3312,1.6424505586829507e-05
0.33359999999999995,1.0941183729784832e-05
0.33599999999999997,5.444722051809186e-06
0.3384,-1.854203052319068e-07
0.3408,-5.945361483210753e-06
0.34319999999999995,-1.1945933340250533e-05
0.34559999999999996,-1.8160945018233554e-05
0.348,-2.4675366875267714e-05
0.3504,-3.1470228553250925e-05
0.35279999999999995,-3.862070041028688e-05
0.35519999999999996,-4.6110812088272114e-05
0.3576,-5.4031333945308064e-05
0.36,-6.235189562328831e-05
0.36239999999999994,-7.115781748032781e-05
0.36479999999999996,-8.043837915830952e-05
0.36719999999999997,-9.03318010153521e-05
0.3696,-0.00010091236269332652
0.37199999999999994,-0.0001124327845503686
0.37439999999999996,-0.00012501234622834575
0.37679999999999997,-0.00013884526808538927
0.3792,-0.00015395732976336354
0.38159999999999994,-0.00017044175162040376
0.38399999999999995,-0.00018823281329838538
0.38639999999999997,-0.00020732523515542352
0.3888,-0.00022758929683340084
0.3912,-0.00024899521869044077
0.39359999999999995,-0.00027137228036841786
0.39599999999999996,-0.000294638202225463
0.3984,-0.0003186137639034433
0.4008,-0.00034323768576047464
0.40319999999999995,-0.0003683597474384606
0.40559999999999996,-0.0003939806692955067
0.408,-0.0004200132309734742
0.4104,-0.00044647265283051545
0.41279999999999994,-0.00047323021450849576
0.41519999999999996,-0.0005002031363655306
0.41759999999999997,-0.0005271336980435123
0.42,-0.0005538881199005519
0.42239999999999994,-0.0005802736815785347
0.42479999999999996,-0.0006062531034355686
0.42719999999999997,-0.0006317036651135473
0.4296,-0.0006566030869705889
0.43199999999999994,-0.0006807686486485644
0.43439999999999995,-0.0007041230705056
0.43679999999999997,-0.000726488632183584
0.4392,-0.0007478930540406213
0.44159999999999994,-0.0007683086157186081
0.44399999999999995,-0.0007878430375756518
0.44639999999999996,-0.0008064235992536283
0.4488,-0.0008240680211106615
0.45119999999999993,-0.0008406485827886464
0.45359999999999995,-0.0008561980046456838
0.45599999999999996,-0.0008706585663236657
0.4584,-0.0008841279881807024
0.4608,-0.0008965535498586833
0.46319999999999995,-0.0009080479717157204
0.46559999999999996,-0.0009186385333936968
0.46799999999999997,-0.0009284879552507414
0.4704,-0.0009376335169287216
0.47279999999999994,-0.0009461929387857592
0.47519999999999996,-0.0009541735004637437
0.47759999999999997,-0.0009616779223207823
0.48,-0.0009686184839987661
0.48239999999999994,-0.0009749779058558037
0.48479999999999995,-0.0009805584675337824
0.48719999999999997,-0.000985297889390821
0.4896,-0.0009889734510687956
0.49199999999999994,-0.0009914128729258322
0.49439999999999995,-0.0009922584346038182
0.49679999999999996,-0.0009912478564608614
0.4992,-0.0009879784181388396
0.5015999999999999,-0.0009822228399958728
0.504,-0.0009737834016738558
0.5064,-0.0009627728235308964
0.5087999999999999,-0.000949383385208873
0.5112,-0.0009340578070659136
0.5136,-0.0009172183687438959
0.5159999999999999,-0.0008994077906009374
0.5184,-0.000880973352278914
0.5207999999999999,-0.0008622027741359573
0.5232,-0.0008430583358139351
0.5256,-0.0008234727576709737
0.5279999999999999,-0.0008030733193489511
0.5304,-0.0007814777412059952
0.5327999999999999,-0.0007580933028839707
0.5351999999999999,-0.0007323377247410209
0.5376,-0.0007034932864189863
0.5399999999999999,-0.0006710877082760335
0.5424,-0.0006346882699540061
0.5448,-0.0005941626918110551
0.5471999999999999,-0.0005493732534890281
0.5496,-0.0005004426753460702
0.5519999999999999,-0.0004475047370240435
0.5544,-0.0003909456588810885
0.5568,-0.00033113422055906804
0.5591999999999999,-0.00026876564241610563
0.5616,-0.00020451520409408064
0.564,-0.00013925212595113125
0.5663999999999999,-7.368218762910173e-05
0.5688,-8.558609486143085e-06
0.5711999999999999,5.55998288358826e-05
0.5736,0.00011822690697883148
0.576,0.00017904734530086401
0.5783999999999999,0.00023782492344382226
0.5808,0.00029466036176584333
0.5831999999999999,0.0003496069399088073
0.5855999999999999,0.00040291087823082625
0.588,0.0004547364563737869
0.5903999999999999,0.0005053868946958159
0.5928,0.0005548474728387683
0.5952,0.0006030369111607879
0.5975999999999999,0.0006495674893037514
0.6,0.0006941819276257712
0.6023999999999999,0.0007365375057687338
0.6047999999999999,0.000776391944090756
0.6072,0.0008133925222337152
0.6095999999999999,0.00084736196055574
0.612,0.0008780425386986895
0.6144,0.0009053269770207174
0.6167999999999999,0.0009288325551636715
0.6192,0.0009483669934857027
0.6215999999999999,0.0009636725716286522
0.624,0.0009747620099506808
0.6264,0.0009816375880936396
0.6287999999999999,0.000984692026415666
0.6312,0.0009843226045586242
0.6335999999999999,0.0009811770428806376
0.6359999999999999,0.0009759076210235968
0.6384,0.0009692770593456266
0.6407999999999999,0.0009618876374885824
0.6432,0.0009544120758106067
0.6456,0.0009472426539535651
0.6479999999999999,0.000940647092275592
0.6504,0.0009345176704185445
0.6527999999999999,0.0009286371087405682
0.6551999999999999,0.0009224076868835304
0.6576,0.0009152271252055505
0.6599999999999999,0.0009061927033485101
0.6624,0.0008945021416705337
0.6648,0.0008793227198134869
0.6671999999999999,0.0008602371581355174
0.6696,0.0008369927362784649
0.6719999999999999,0.0008098071746004914
0.6743999999999999,0.0007790877527434482
0.6768,0.0007456671910654692
0.6791999999999999,0.0007105477692084275
0.6816,0.0006748772075304514
0.6839999999999999,0.0006395477856734058
0.6863999999999999,0.0006054022239954354
0.6888,0.0005729528021383847
0.6911999999999999,0.0005426722404604153
0.6936,0.0005148678186033713
0.696,0.000489897256925398
0.6983999999999999,0.0004679053350683463
0.7008,0.0004490427733903796
0.7031999999999999,0.0004332548515333373
0.7055999999999999,0.00042059578985535685
0.708,0.00041098136799831275
0.7103999999999999,0.00040439780632033827
0.7128,0.00040058988446330026
0.7152,0.000399322322785316
0.7175999999999999,0.0004002189009282629
0.72,0.00040311983925029894
0.7223999999999999,0.0004077869173932596
0.7247999999999999,0.00041410385571528176
0.7272,0.0004218679338582321
0.7295999999999999,0.00043107687218026124
0.732,0.0004415914503232212
0.7343999999999999,0.00045334938864524026
0.7367999999999999,0.00046613346678819266
0.7392,0.00047989240511021793
0.7415999999999999,0.00049453398325318
0.7439999999999999,0.0005100724215752046
0.7464,0.0005263179997181546
0.7487999999999999,0.0005431124380401821
0.7512,0.0005601080161831446
0.7535999999999999,0.0005769574545051662
0.7559999999999999,0.000593118032648121
0.7584,0.0006082924709701482
0.7607999999999999,0.0006222780491131129
0.7631999999999999,0.0006353124874351237
0.7656,0.0006476780655780841
0.7679999999999999,0.0006598225039001168
0.7704,0.0006720130820430722
0.7727999999999999,0.0006846975203650952
0.7751999999999999,0.0006983530985080513
0.7776,0.0007136675368300686
0.7799999999999999,0.0007311231149730356
0.7824,0.0007510175532950522
0.7847999999999999,0.0007732431314380113
0.7871999999999999,0.000797577569760034
0.7896,0.0008235881479030045
0.7919999999999999,0.0008509325862250223
0.7943999999999999,0.0008792381643679774
0.7968,0.0009084426026899937
0.7991999999999999,0.0009385281808329478
0.8016,0.0009697526191549764
0.8039999999999999,0.0010023931972979344
0.8063999999999999,0.0010368626356199594
0.8088,0.0010732432137629292
0.8111999999999999,0.0011116026520849428
0.8135999999999999,0.0011518682302278998
0.816,0.0011940626685499188
0.8183999999999999,0.001238108246692881
0.8208,0.0012840776850148962
0.8231999999999999,0.0013319232631578619
0.8255999999999999,0.001381822701479885
0.828,0.0014338882796228452
0.8303999999999999,0.0014883977179448616
0.8327999999999999,0.0015454032960878232
0.8351999999999999,0.0016049777344098375
0.8375999999999999,0.0016669383125528
0.84,0.0017311727508748196
0.8423999999999999,0.0017972833290177779
0.8447999999999999,0.0018649027673398107
0.8472,0.0019334983454827727
0.8495999999999999,0.002002632783804796
0.852,0.002071733361947753
0.8543999999999999,0.0021402828002697635
0.8567999999999999,0.0022077283784127334
0.8592,0.0022737978167347473
0.8615999999999999,0.0023382633948777075
0.8639999999999999,0.002401092833199728
0.8664,0.0024620734113427
0.8687999999999999,0.0025210328496647204
0.8712,0.0025775584278076784
0.8735999999999999,0.0026313428661296954
0.8759999999999999,0.0026819934442726496
0.8784,0.002729492882594678
0.8807999999999999,0.0027739684607376324
0.8831999999999999,0.0028157128990596706
0.8855999999999999,0.002854708477202629
0.8879999999999999,0.0028908229155246443
0.8904,0.002923653493667615
0.8927999999999999,0.0029529779319896203
0.8951999999999999,0.002978703510132583
0.8976,0.0030011629484546047
0.8999999999999999,0.0030207535265975648
0.9023999999999999,0.003037957964919597
0.9047999999999999,0.003052983543062562
0.9071999999999999,0.0030659279813845777
0.9096,0.003076543559527532
0.9119999999999999,0.003084547997849556
0.9143999999999999,0.0030894785759925138
0.9168,0.003091008014314538
0.9191999999999999,0.0030886535924574982
0.9216,0.003082123030779517
0.9239999999999999,0.0030711486089224833
0.9263999999999999,0.0030556630472445023
0.9288,0.003035493625387459
0.9311999999999999,0.0030105230637094697
0.9335999999999999,0.0029806736418524406
0.9359999999999999,0.0029462580801744576
0.9383999999999999,0.002907893658317415
0.9408,0.002866678096639442
0.9431999999999999,0.0028237486747824062
0.9455999999999999,0.0027801781131044276
0.948,0.002736748691247382
0.9503999999999999,0.0026940031295694055
0.9527999999999999,0.002651988707712359
0.9551999999999999,0.0026106231460343763
0.9575999999999999,0.002569688724177341
0.96,0.0025291881624993663
0.9623999999999999,0.002489073740642327
0.9647999999999999,0.002449298178964346
0.9672,0.002409693757107304
0.9695999999999999,0.0023702931954293245
0.9719999999999999,0.002331058773572282
0.9743999999999999,0.002292163211894297
0.9767999999999999,0.0022539237900372593
0.9792,0.0022168832283592896
0.9815999999999999,0.002181568806502257
0.9839999999999999,0.002148668244824266
0.9863999999999999,0.002118643822967221
0.9887999999999999,0.0020916682612892473
0.9911999999999999,0.002067473839432202
0.9935999999999999,0.0020456082777542193
0.9959999999999999,0.0020253838558971825
0.9984,0.002006018294219206
1.0008,0.0019864438723621674
1.0031999999999999,0.0019656533106841866
1.0055999999999998,0.0019427188888271457
1.008,0.0019170233271491586
1.0104,0.0018879939052921242
1.0128,0.001855423343614145
1.0151999999999999,0.0018194139217571014
1.0175999999999998,0.0017806233600791365
1.02,0.0017400539382221017
1.0224,0.0016990933765441134
1.0248,0.001659403954687073
1.0272,0.0016229833930090987
1.0295999999999998,0.0015915189711520536
1.0319999999999998,0.001566288409474071
1.0344,0.0015479339876170437
1.0368,0.0015366434259390578
1.0392,0.0015319640040820206
1.0415999999999999,0.0015332034424040413
1.0439999999999998,0.0015394990205469994
1.0464,0.0015500584588690211
1.0488,0.001563854037011984
1.0512,0.0015798134753339992
1.0535999999999999,0.0015966290534769631
1.0559999999999998,0.0016130334917989937
1.0584,0.001627704069941956
1.0608,0.0016395685082639692
1.0632,0.0016476990864069275
1.0655999999999999,0.001651608524728955
1.0679999999999998,0.0016510541028719125
1.0703999999999998,0.0016462385411939275
1.0728,0.0016375441193368985
1.0752,0.001625668557658916
1.0776,0.00161139913580188
1.0799999999999998,0.001595568574123889
1.0823999999999998,0.0015786891522668565
1.0848,0.0015610985905888794
1.0872,0.001542829168731835
1.0896,0.0015236886070538528
1.0919999999999999,0.0015029941851968205
1.0943999999999998,0.0014798086235188448
1.0968,0.0014530792016618024
1.0992,0.0014219036399838211
1.1016,0.001385469218126783
1.1039999999999999,0.0013434886564488075
1.1063999999999998,0.0012959692345917628
1.1088,0.0012433236729137776
1.1112,0.0011860892510567515
1.1136,0.0011252336893787698
1.1159999999999999,0.001062269267521731
1.1183999999999998,0.0009992887058437457
1.1207999999999998,0.0009386142839867083
1.1232,0.0008826487223087291
1.1256,0.0008333793004516882
1.128,0.0007923187387737033
1.1303999999999998,0.000760154316916675
1.1327999999999998,0.0007369187552386921
1.1352,0.0007218843333816575
1.1376,0.0007138387717036755
1.14,0.0007111093498466319
1.1423999999999999,0.0007119237881686534
1.1447999999999998,0.0007142393663116106
1.1472,0.0007158988046336284
1.1496,0.0007145043827765958
1.152,0.0007079388210986113
1.1543999999999999,0.0006946443992415753
1.1567999999999998,0.0006737188375635918
1.1592,0.0006452344157065623
1.1616,0.0006103588540285746
1.164,0.0005707644321715334
1.1663999999999999,0.0005284638704935534
1.1687999999999998,0.00048523444863651956
1.1711999999999998,0.00044266438695853905
1.1736,0.0004019159651014991
1.176,0.00036345390342351646
1.1784,0.00032684248156648
1.1807999999999998,0.0002914559198884953
1.1831999999999998,0.0002566464980314505
1.1856,0.00022166193635347675
1.188,0.00018542901449644916
1.1904,0.00014672395281846434
1.1927999999999999,0.00010424503096142451
1.1951999999999998,5.708896928345224e-05
1.1976,4.969047426409892e-06
1.2,-5.168001425157165e-05
1.2024,-0.00011211843610861439
1.2047999999999999,-0.0001754049977865886
1.2071999999999998,-0.00024076491964362474
1.2095999999999998,-0.00030753148132160865
1.212,-0.0003752659031786483
1.2144,-0.00044341446485662427
1.2167999999999999,-0.0005112453867136595
1.2191999999999998,-0.0005778459483916458
1.2215999999999998,-0.000642535370248687
1.224,-0.0007049159319266607
1.2264,-0.0007651203537836938
1.2288,-0.0008233959154616889
1.2311999999999999,-0.000879865337318729
1.2335999999999998,-0.000934675898996709
1.236,-0.0009883753208537469
1.2384,-0.0010418258825317273
1.2408,-0.0010963003043887687
1.2431999999999999,-0.0011530358660667434
1.2455999999999998,-0.0012130002879237804
1.248,-0.0012765708496017582
1.2504,-0.0013437152714588082
1.2528,-0.0014139958331367795
1.2551999999999999,-0.0014868652549938108
1.2575999999999998,-0.001561665816671804
1.2599999999999998,-0.001638060238528843
1.2624,-0.0017158958002068169
1.2648,-0.0017952602220638477
1.2671999999999999,-0.0018761757837418326
1.2695999999999998,-0.0019586802055988777
1.2719999999999998,-0.0020429357672768463
1.2744,-0.0021295351891338927
1.2768,-0.0022191107508118726
1.2792,-0.0023122651726689104
1.2815999999999999,-0.002409405734346892
1.2839999999999998,-0.0025109851562039277
1.2864,-0.0026171607178819157
1.2888,-0.002727700139738952
1.2912,-0.0028420107014169287
1.2935999999999999,-0.0029592101232739677
1.2959999999999998,-0.0030783056849519467
1.2983999999999998,-0.003198610106808985
1.3008,-0.003319815668486968
1.3032,-0.0034421600903439945
1.3055999999999999,-0.0035659056520219844
1.3079999999999998,-0.0036913650738790273
1.3103999999999998,-0.0038188406355570068
1.3128,-0.003948685057414036
1.3152,-0.004080920619092022
1.3175999999999999,-0.0042150900409490665
1.3199999999999998,-0.004350230602627042
1.3223999999999998,-0.004485040024484078
1.3248,-0.0046178205861620554
